105.443	6083.03
108.528	5455.58
111.612	4802.2
114.693	4200.88
117.774	3685.13
120.854	3233.79
123.931	2827.03
127.007	2521.12
130.081	2217.31
133.155	1973.9
136.226	1736.8
139.296	1514.7
142.364	1351.35
145.431	1173.3
148.496	1065.79
151.559	962.192
154.622	855.741
157.682	759.603
160.741	695.885
163.799	624.486
166.855	567.309
169.91	514.987
172.963	465.24
176.014	432.175
179.064	395.937
182.113	355.387
185.16	335.727
188.205	298.201
191.249	289.907
194.291	265.332
197.333	259.715
200.372	236.938
203.409	224.68
206.446	208.705
209.48	196.729
212.514	192.905
215.546	184.817
218.577	179.996
221.605	167.703
224.633	162.748
227.658	153.032
230.682	138.469
233.706	143.009
236.727	147.319
239.747	137.428
242.765	129.819
245.782	128.039
248.797	129.719
251.811	126.27
254.823	120.414
257.834	117.006
260.844	114.372
263.852	117.997
266.858	119.048
269.863	114.496
272.866	115.186
275.868	116.226
278.869	114.93
281.867	118.858
284.865	113.843
287.861	116.511
290.856	112.012
293.848	111.901
296.84	114.899
299.83	112.234
302.819	110.698
305.806	114.637
308.791	112.524
311.775	105.292
314.758	111.206
317.739	106.387
320.719	109.073
323.697	109.218
326.674	117.493
329.649	117.439
332.623	108.09
335.595	113.035
338.566	110.689
341.535	113.408
344.504	110.922
347.47	107.534
350.434	105.719
353.399	111.979
356.36	111.139
359.321	107.928
362.281	111.339
365.238	105.469
368.194	112.685
371.149	112.652
374.102	112.846
377.054	119.234
380.005	121.143
382.954	130
385.901	119.834
388.847	132.671
391.792	134.211
394.735	133.152
397.676	131.743
400.617	131.488
403.555	125.98
406.493	122.937
409.429	117.038
412.363	113.387
415.297	106.323
418.228	108.677
421.158	103.632
424.087	102.114
427.014	107.123
429.94	103.356
432.864	100.025
435.787	97.8613
438.709	100.346
441.629	97.2384
444.547	96.7058
447.464	97.7085
450.38	97.6446
453.294	92.293
456.208	87.9369
459.119	94.5906
462.028	91.5252
464.938	85.3293
467.844	89.7129
470.75	88.4765
473.654	86.9539
476.557	86.0122
479.459	85.809
482.359	85.5774
485.257	85.777
488.154	89.1009
491.05	85.0946
493.945	84.7837
496.838	86.4625
499.729	84.3
502.619	85.762
505.508	85.4579
508.395	83.5231
511.281	84.5335
514.165	80.2752
517.049	82.767
519.93	86.0123
522.81	80.7613
525.689	86.1908
528.566	81.1032
531.442	82.8811
534.317	83.1533
537.19	91.8912
540.062	84.5622
542.932	80.4526
545.801	86.9707
548.669	84.8486
551.534	83.898
554.399	87.1956
557.262	90.7802
560.124	96.1302
562.985	98.689
565.844	95.898
568.702	97.8366
571.558	105.708
574.413	115.733
577.266	119.236
580.118	137.554
582.969	150.63
585.819	186.359
588.666	236.963
591.513	344.679
594.359	541.083
597.202	763.113
600.045	799.492
602.885	597.744
605.725	405.102
608.564	269.433
611.4	200.643
614.236	164.261
617.07	140.569
619.902	126.676
622.734	116.903
625.564	105.941
628.393	108.194
631.219	98.8466
634.045	93.3613
636.87	94.2214
639.693	90.4707
642.515	87.7681
645.335	93.4595
648.153	90.5279
650.971	91.1004
653.787	89.5135
656.602	89.0634
659.416	86.3928
662.228	95.6717
665.038	92.8669
667.848	95.8159
670.655	91.5132
673.462	95.4825
676.268	93.1761
679.071	96.7432
681.874	90.0361
684.675	90.1002
687.475	87.0341
690.273	82.055
693.07	84.5033
695.866	82.0765
698.66	79.8622
701.453	79.979
704.244	74.2762
707.035	74.8465
709.824	77.6717
712.612	78.9107
715.397	74.7958
718.183	75.3721
720.966	76.7769
723.748	79.4128
726.529	76.7959
729.308	73.7657
732.087	76.1777
734.863	78.2144
737.639	75.3383
740.413	72.6446
743.186	77.7558
745.956	74.0539
748.726	80.0178
751.495	75.2472
754.262	72.6043
757.029	78.5264
759.793	76.6431
762.557	78.4773
765.318	83.4562
768.079	83.0407
770.839	81.4896
773.597	89.6263
776.353	85.9206
779.109	83.7041
781.862	89.0857
784.615	96.9577
787.366	103.725
790.116	111.707
792.865	118.859
795.612	109.948
798.358	111.18
801.102	103.761
803.846	91.4852
806.588	95.542
809.329	91.5678
812.068	91.6144
814.806	95.1955
817.542	95.2573
820.278	100.116
823.012	101.493
825.744	106.664
828.476	111.956
831.206	118.11
833.935	135.743
836.662	144.895
839.388	160.852
842.113	170.588
844.836	151.317
847.558	136.277
850.279	121.13
852.999	106.291
855.718	95.0903
858.435	93.1113
861.15	86.2075
863.865	83.0688
866.577	80.5222
869.289	79.8039
871.999	77.5308
874.709	80.5647
877.417	77.9069
880.123	78.8295
882.828	76.7232
885.531	75.025
888.234	79.0787
890.936	75.868
893.635	75.6389
896.334	77.8298
899.031	74.7285
901.728	75.6789
904.422	74.7689
907.116	78.1788
909.808	76.6628
912.499	74.6273
915.188	79.0488
917.877	76.3525
920.563	79.1732
923.249	79.9107
925.934	85.2313
928.617	91.3415
931.298	93.3721
933.979	94.0224
936.658	86.6306
939.336	90.7074
942.013	90.4996
944.688	95.5094
947.362	97.6816
950.035	104.86
952.706	112.846
955.377	126.727
958.045	139.368
960.714	168.808
963.38	219.735
966.044	302.415
968.709	492.129
971.372	784.159
974.033	1185.08
976.693	1603.2
979.351	2731.26
982.009	6890.07
984.665	11001.5
987.32	7722.62
989.974	4110.52
992.626	2100.82
995.277	980.595
997.926	553.213
1000.57	343.402
1003.22	231.878
1005.87	174.621
1008.51	148.928
1011.16	131.519
1013.8	120.907
1016.44	118.992
1019.08	112.585
1021.72	110.201
1024.35	102.449
1026.99	98.0809
1029.63	102.437
1032.26	97.1474
1034.89	87.888
1037.52	89.8265
1040.15	88.5936
1042.78	81.5875
1045.41	89.0539
1048.03	81.0902
1050.66	82.8129
1053.28	81.0476
1055.9	80.4694
1058.52	81.4757
1061.14	81.4582
1063.76	83.0181
1066.38	86.8039
1068.99	87.5906
1071.61	91.0486
1074.22	93.9634
1076.83	86.2058
1079.44	83.3192
1082.05	84.8564
1084.66	81.5954
1087.27	87.5459
1089.87	82.6648
1092.48	83.1921
1095.08	81.1002
1097.68	80.9295
1100.29	79.7602
1102.88	83.7355
1105.48	88.2525
1108.08	89.3326
1110.68	84.8932
1113.27	80.4594
1115.86	85.7668
1118.46	88.2642
1121.05	89.5132
1123.64	94.4606
1126.23	97.5388
1128.81	99.5089
1131.4	104.929
1133.98	110.734
1136.57	120.493
1139.15	124.911
1141.73	126.653
1144.31	139.798
1146.89	146.548
1149.47	150.898
1152.04	164.567
1154.62	191.763
1157.19	233.012
1159.76	283.875
1162.33	363.86
1164.9	483.944
1167.47	600.924
1170.04	650.718
1172.61	606.271
1175.17	491.297
1177.74	369.287
1180.3	299.422
1182.86	230.512
1185.42	193.26
1187.98	169.1
1190.54	148.338
1193.09	128.143
1195.65	125.845
1198.2	113.907
1200.76	109.687
1203.31	104.1
1205.86	100.202
1208.41	96.271
1210.96	101.255
1213.5	93.8465
1216.05	100.363
1218.59	90.0352
1221.14	86.375
1223.68	89.3013
1226.22	86.0066
1228.76	86.4424
1231.3	84.9048
1233.84	83.7432
1236.37	80.844
1238.91	84.7849
1241.44	84.7757
1243.97	85.0802
1246.5	88.8168
1249.03	85.153
1251.56	80.9206
1254.09	83.381
1256.62	86.5768
1259.14	86.5611
1261.67	84.0688
1264.19	85.0954
1266.71	90.0903
1269.23	87.6727
1271.75	84.5391
1274.27	82.6717
1276.78	90.0813
1279.3	89.8642
1281.81	85.8455
1284.33	86.8779
1286.84	88.2873
1289.35	88.0677
1291.86	93.9814
1294.37	93.5964
1296.88	95.3451
1299.38	93.7442
1301.89	98.4151
1304.39	97.3938
1306.89	94.4837
1309.4	93.1202
1311.9	93.904
1314.4	99.8258
1316.89	91.4795
1319.39	98.3436
1321.89	101.907
1324.38	100.817
1326.87	97.0532
1329.37	101.032
1331.86	100.66
1334.35	105.603
1336.83	107.168
1339.32	106.924
1341.81	107.338
1344.29	111.192
1346.78	115.176
1349.26	107.768
1351.74	108.003
1354.22	119.411
1356.7	118.587
1359.18	113.783
1361.65	115.687
1364.13	110.587
1366.6	115.992
1369.08	110.64
1371.55	111.344
1374.02	109.977
1376.49	107.752
1378.96	109.911
1381.43	111.473
1383.89	109.667
1386.36	111.191
1388.82	116.83
1391.28	116.456
1393.75	121.68
1396.21	127.408
1398.67	135.843
1401.12	130.944
1403.58	121.594
1406.04	122.949
1408.49	113.705
1410.95	117.79
1413.4	109.465
1415.85	112.317
1418.3	100.958
1420.75	107.531
1423.2	106.63
1425.64	103.999
1428.09	113.275
1430.53	106.16
1432.97	103.948
1435.42	104.729
1437.86	106.319
1440.3	107.1
1442.74	104.425
1445.17	102.509
1447.61	102.503
1450.05	105.998
1452.48	103.434
1454.91	101.435
1457.34	104.524
1459.77	102.591
1462.2	105.741
1464.63	104.465
1467.06	109.064
1469.48	113.394
1471.91	112.505
1474.33	112.256
1476.76	109.075
1479.18	107.316
1481.6	105.798
1484.02	107.028
1486.44	101.483
1488.85	105.408
1491.27	100.901
1493.68	100.545
1496.1	104.049
1498.51	102.724
1500.92	106.745
1503.33	101.287
1505.74	102.338
1508.15	101.108
1510.55	96.7759
1512.96	100.542
1515.36	99.501
1517.77	96.1597
1520.17	100.491
1522.57	105.416
1524.97	104.328
1527.37	106.263
1529.77	104.033
1532.16	104.992
1534.56	98.2272
1536.95	104.422
1539.35	109.53
1541.74	109.596
1544.13	108.206
1546.52	113.342
1548.91	118.758
1551.3	120.305
1553.68	124.774
1556.07	122.291
1558.45	130.962
1560.84	146.075
1563.22	149.16
1565.6	176.214
1567.98	189.818
1570.36	218.953
1572.74	250.095
1575.11	296.777
1577.49	347.293
1579.86	367.113
1582.24	364.016
1584.61	314.56
1586.98	265.621
1589.35	244.941
1591.72	232.722
1594.08	239.476
1596.45	263.151
1598.82	285.663
1601.18	285.88
1603.54	258.986
1605.91	222.402
1608.27	190.518
1610.63	167.964
1612.99	158.248
1615.34	140.568
1617.7	131.16
1620.06	120.28
1622.41	119.354
1624.76	109.987
1627.12	110.458
1629.47	104.522
1631.82	105.457
1634.17	98.7757
1636.51	93.5705
1638.86	92.2014
1641.21	93.9018
1643.55	85.4098
1645.9	88.9697
1648.24	94.0877
1650.58	87.579
1652.92	86.4579
1655.26	86.5693
1657.6	86.0908
1659.93	87.8058
1662.27	88.9208
1664.6	80.4179
1666.94	85.4437
1669.27	83.5515
1671.6	78.6043
1673.93	81.8866
1676.26	83.0382
1678.59	82.0587
1680.92	88.1233
1683.24	84.2002
1685.57	78.5194
1687.89	77.382
1690.22	82.8465
1692.54	84.5413
1694.86	87.0808
1697.18	81.1035
1699.5	76.8598
1701.81	79.4209
1704.13	77.6646
1706.45	79.4921
1708.76	82.6459
1711.07	80.4826
1713.38	77.1498
1715.7	72.6816
1718.01	75.7049
1720.31	76.657
1722.62	68.9796
1724.93	74.62
1727.24	71.8343
1729.54	71.6458
1731.84	74.5096
1734.15	75.7769
1736.45	70.3326
1738.75	68.9138
1741.05	70.5233
1743.35	70.4661
1745.64	69.2961
1747.94	72.4795
1750.23	71.5958
1752.53	69.0565
1754.82	70.6873
1757.11	68.1698
1759.4	67.809
1761.69	71.0812
1763.98	67.1598
1766.27	63.3983
1768.56	67.6121
1770.84	66.7037
1773.13	66.8534
1775.41	65.4625
1777.69	61.7869
1779.97	61.9954
1782.25	65.757
1784.53	62.2625
1786.81	62.4309
1789.09	60.9734
1791.36	56.5263
1793.64	64.9734
1795.91	63.4098
1798.18	60.9921
1800.46	61.9797
1802.73	60.8152
1805	58.1492
1807.27	59.7669
1809.53	63.2172
1811.8	60.8343
1814.07	63.8849
1816.33	59.8747
1818.59	59.6947
1820.86	57.1573
1823.12	58.6817
1825.38	60.1517
1827.64	64.3882
1829.89	55.6531
1832.15	57.9628
1834.41	53.1698
1836.66	58.0138
1838.92	58.7844
1841.17	60.3661
1843.42	60.3821
1845.67	56.0733
1847.92	56.4795
1850.17	60.6252
1852.42	51.8027
1854.67	54.6801
1856.91	52.7575
1859.16	57.2472
1861.4	55.374
1863.64	56.2977
1865.88	60.042
1868.12	59.3752
1870.36	58.74
1872.6	58.4785
1874.84	58.8564
1877.08	59.5246
1879.31	54.1474
1881.54	57.3232
1883.78	55.5358
1886.01	55.3899
1888.24	56.1171
1890.47	53.2114
1892.7	55.5022
1894.93	58.4144
1897.16	54.0319
1899.38	54.0843
1901.61	51.3882
1903.83	52.2199
1906.05	50.9685
1908.28	54.2002
1910.5	53.1861
1912.72	52.0319
1914.94	51.5974
1917.16	52.5974
1919.37	48.9922
1921.59	58.7217
1923.8	54.5335
1926.02	53.7385
1928.23	55.4907
1930.44	58.4506
1932.65	54.5347
1934.86	52.1278
1937.07	54.5858
1939.28	50.0387
1941.48	50.3983
1943.69	50.9309
1945.9	48.6571
1948.1	50.7571
1950.3	47.2573
1952.5	52.6217
1954.7	50.7929
1956.9	51.4163
1959.1	44.1228
1961.3	48.6115
1963.5	47.1328
1965.69	46.0975
1967.89	50.5615
1970.08	47.1944
1972.27	46.7072
1974.46	47.037
1976.66	46.9454
1978.84	44.8196
1981.03	48.7738
1983.22	42.4595
1985.41	47.8893
1987.59	42.1228
1989.78	47.5515
1991.96	44.9554
1994.14	43.2214
1996.32	45.3899
1998.51	44.413
2000.69	43.5421
2002.86	43.1876
2005.04	43.9138
2007.22	44.8264
2009.39	45.843
2011.57	43.5648
2013.74	43.658
2015.91	44.7728
2018.09	43.6174
2020.26	42.6591
2022.43	38.2909
2024.59	40.77
2026.76	42.8554
2028.93	38.5413
2031.09	41.5256
2033.26	42.3254
2035.42	39.8114
2037.59	46.2351
2039.75	42.6717
2041.91	44.6589
2044.07	40.8309
2046.23	39.5948
2048.38	39.0122
2050.54	35.4663
2052.7	36.6036
2054.85	34.5222
2057	35.9797
2059.16	38.2856
2061.31	37.4142
2063.46	36.9793
2065.61	37.5265
2067.76	34.2613
2069.91	35.9106
2072.05	37.9733
2074.2	38.0128
2076.34	39.8141
2078.49	36.3636
2080.63	39.1228
2082.77	36.3495
2084.91	35.522
2087.05	39.4468
2089.19	34.6557
2091.33	33.1528
2093.47	37.2015
2095.6	33.5946
2097.74	33.0374
2099.87	34.5348
2102.01	34.5897
2104.14	35.3703
2106.27	35.7676
2108.4	31.5647
2110.53	33.6627
2112.66	32.4628
2114.79	31.7642
2116.91	29.3313
2119.04	32.6789
2121.16	33.6133
2123.29	31.7569
2125.41	29.6232
2127.53	29.6385
2129.65	28.6233
2131.77	34.0072
2133.89	33.6445
2136.01	33.4348
2138.12	33.6758
2140.24	31.6985
2142.35	31.0734
2144.47	31.135
2146.58	33.244
2148.69	29.5773
2150.8	29.6364
2152.91	32.8517
2155.02	32.694
2157.13	29.6087
2159.24	29.0062
2161.34	32.1292
2163.45	29.065
2165.55	27.6399
2167.66	30.3696
2169.76	40.8365
2171.86	32.5264
2173.96	30.0387
2176.06	30.1076
2178.16	31.989
2180.26	32.1855
2182.35	32.7916
2184.45	32.705
2186.54	35.2115
2188.64	31.8947
2190.73	30.1004
2192.82	30.9855
2194.91	28.2484
2197	30.666
2199.09	30.6087
2201.18	26.5633
2203.27	34.3928
2205.35	30.968
2207.44	25.784
2209.52	28.5637
2211.61	32.6242
2213.69	28.9138
2215.77	27.5774
2217.85	31.075
2219.93	26.8039
2222.01	29.5684
2224.09	26.6533
2226.16	25.8572
2228.24	29.9428
2230.31	29.3597
2232.39	27.5706
2234.46	26.4281
2236.53	25.6301
2238.6	27.4933
2240.67	27.1503
2242.74	26.2788
2244.81	29.4159
2246.88	26.5774
2248.94	23.7558
2251.01	25.917
2253.07	27.7888
2255.14	24.8939
2257.2	26.4348
2259.26	24.7287
2261.32	23.8365
2263.38	29.5353
2265.44	29.0643
2267.5	26.2968
2269.56	28.0391
2271.61	24.3653
2273.67	25.6784
2275.72	26.0317
2277.78	27.1586
2279.83	28.7406
2281.88	26.3967
2283.93	25.9375
2285.98	28.8866
2288.03	29.7075
2290.08	28.0915
2292.12	28.7995
2294.17	27.5917
2296.21	29.2146
2298.26	25.9565
2300.3	27.3967
2302.34	31.0903
2304.38	26.5875
2306.42	24.0808
2308.46	24.4079
2310.5	28.7054
2312.54	25.9914
2314.58	23.3739
2316.61	24.0117
2318.65	23.0388
2320.68	19.0318
2322.71	22.8602
2324.75	22.9454
2326.78	22.8159
2328.81	23.4757
2330.84	24.408
2332.86	24.6464
2334.89	23.4236
2336.92	24.9151
2338.94	25.6176
2340.97	24.9953
2342.99	25.1876
2345.02	25.4579
2347.04	25.1261
2349.06	25.1149
2351.08	22.1706
2353.1	25.1573
2355.12	21.8994
2357.13	20.7882
2359.15	22.6828
2361.17	24.4154
2363.18	25.5936
2365.19	24.4925
2367.21	25.4438
2369.22	24.9476
2371.23	20.0449
2373.24	24.9792
2375.25	24.7669
2377.26	21.6658
2379.27	24.8623
2381.27	22.6804
2383.28	23.7739
2385.28	24.6321
2387.29	23.0965
2389.29	19.313
2391.29	23.1667
2393.29	21.6176
2395.29	21.4436
2397.29	21.2741
2399.29	19.6565
2401.29	22.428
2403.28	21.5235
2405.28	21.8813
2407.27	22.4395
2409.27	25.2204
2411.26	18.1518
2413.25	21.0465
2415.25	24.9272
2417.24	21.1498
2419.22	21.8353
2421.21	19.4098
2423.2	24.3809
2425.19	24.6017
2427.17	19.5974
2429.16	19.7176
2431.14	21.6035
2433.13	23.1248
2435.11	25.3327
2437.09	22.2414
2439.07	23.385
2441.05	21.3803
2443.03	21.0969
2445.01	25.4924
2446.98	22.2288
2448.96	26.9206
2450.93	28.3781
2452.91	25.1861
2454.88	23.7054
2456.85	23.4694
2458.83	22.4145
2460.8	24.2089
2462.77	22.0551
2464.74	20.3451
2466.7	21.1749
2468.67	23.0666
2470.64	22.9654
2472.6	21.1905
2474.57	18.907
2476.53	20.6795
2478.49	19.954
2480.46	21.9169
2482.42	20.5275
2484.38	18.0218
2486.34	22.4079
2488.29	26.4536
2490.25	26.5818
2492.21	26.8725
2494.16	28.402
2496.12	27.5938
2498.07	21.8725
2500.03	22.6106
2501.98	23.7305
2503.93	22.4757
2505.88	22.6727
2507.83	26.6357
2509.78	29.7136
2511.73	38.2182
2513.67	42.6559
2515.62	40.0565
2517.56	37.4976
2519.51	25.1745
2521.45	24.9374
2523.4	22.6916
2525.34	23.1239
2527.28	21.9141
2529.22	23.8602
2531.16	21.392
2533.1	26.6847
2535.03	20.1385
2536.97	27.7216
2538.91	28.1102
2540.84	24.7769
2542.77	25.115
2544.71	23.4009
2546.64	20.1798
2548.57	20.4505
2550.5	20.1262
2552.43	18.006
2554.36	18.6795
2556.29	16.8696
2558.21	16.6264
2560.14	16.313
2562.07	17.937
2563.99	20.9992
2565.91	16.0587
2567.84	18.2603
2569.76	19.8543
2571.68	17.8569
2573.6	17.6245
2575.52	17.5603
2577.44	17.9138
2579.36	17.0398
2581.27	16.2144
2583.19	18.4236
2585.1	16.8853
2587.02	19.2075
2588.93	17.1799
2590.84	14.0577
2592.75	15.8309
2594.67	18.7153
2596.58	19.8533
2598.48	17.8653
2600.39	18.7469
