105.443	6093.91
108.528	5447.1
111.612	4791.49
114.693	4227.46
117.774	3698.57
120.854	3227.95
123.931	2845.85
127.007	2488.25
130.081	2194.76
133.155	1924.36
136.226	1704.8
139.296	1500.72
142.364	1341.36
145.431	1175.35
148.496	1052.74
151.559	932.172
154.622	853.079
157.682	765.213
160.741	670.069
163.799	615.677
166.855	548.454
169.91	493.656
172.963	451.686
176.014	417.021
179.064	380.156
182.113	340.366
185.16	317.271
188.205	299.892
191.249	285.969
194.291	259.298
197.333	245.93
200.372	233.34
203.409	225.025
206.446	203.664
209.48	194.702
212.514	188.443
215.546	170.21
218.577	161.362
221.605	153.975
224.633	147.714
227.658	139.231
230.682	148.088
233.706	137.974
236.727	137.818
239.747	127.798
242.765	123.864
245.782	122.325
248.797	123.599
251.811	120.293
254.823	118.442
257.834	113.864
260.844	107.757
263.852	113.295
266.858	112.343
269.863	111.693
272.866	107.219
275.868	110.443
278.869	110.36
281.867	113.44
284.865	102.781
287.861	105.196
290.856	104.297
293.848	106.889
296.84	106.398
299.83	109.402
302.819	107.263
305.806	102.753
308.791	98.1004
311.775	105.959
314.758	102.32
317.739	102.867
320.719	103.037
323.697	102.773
326.674	99.854
329.649	106.64
332.623	104.104
335.595	107.785
338.566	106.738
341.535	108.329
344.504	102.796
347.47	103.382
350.434	105.378
353.399	98.9141
356.36	96.4221
359.321	108.999
362.281	103.295
365.238	104.384
368.194	100.467
371.149	99.9793
374.102	104.67
377.054	111.373
380.005	110.803
382.954	114.098
385.901	119.983
388.847	125.753
391.792	127.932
394.735	136.938
397.676	134.337
400.617	120.876
403.555	114.033
406.493	115.136
409.429	108.831
412.363	102.753
415.297	107.601
418.228	106.551
421.158	104.934
424.087	94.4173
427.014	100.435
429.94	95.2212
432.864	89.2411
435.787	90.9918
438.709	96.0811
441.629	93.8262
444.547	97.0781
447.464	91.0031
450.38	91.348
453.294	86.2376
456.208	89.8609
459.119	81.7652
462.028	84.6953
464.938	81.2854
467.844	83.0805
470.75	81.8453
473.654	79.1951
476.557	76.6773
479.459	77.9934
482.359	76.1021
485.257	75.4538
488.154	79.0856
491.05	80.3324
493.945	79.1503
496.838	79.1897
499.729	77.6615
502.619	78.5964
505.508	79.2256
508.395	80.1967
511.281	77.6997
514.165	78.7733
517.049	76.3649
519.93	81.3868
522.81	75.6838
525.689	78.1913
528.566	74.4222
531.442	77.8763
534.317	75.9521
537.19	73.4478
540.062	79.8901
542.932	74.1317
545.801	74.7967
548.669	79.8741
551.534	81.9359
554.399	79.8245
557.262	83.5207
560.124	84.5106
562.985	92.3388
565.844	95.2694
568.702	96.7119
571.558	102.197
574.413	104.566
577.266	108.761
580.118	125.561
582.969	148.341
585.819	176.272
588.666	240.797
591.513	351.213
594.359	525.795
597.202	762.528
600.045	788.41
602.885	589.259
605.725	397.388
608.564	262.817
611.4	200.159
614.236	162.775
617.07	132.589
619.902	119.007
622.734	111.909
625.564	106.956
628.393	98.6182
631.219	89.9752
634.045	93.9651
636.87	87.5028
639.693	88.642
642.515	86.0288
645.335	84.6085
648.153	88.601
650.971	90.3324
653.787	80.3173
656.602	88.2134
659.416	87.9715
662.228	91.826
665.038	90.1059
667.848	84.2548
670.655	88.13
673.462	83.1976
676.268	85.839
679.071	89.8643
681.874	84.0703
684.675	80.4099
687.475	78.531
690.273	82.1873
693.07	75.6425
695.866	77.1719
698.66	77.6654
701.453	72.639
704.244	73.8611
707.035	71.5648
709.824	68.348
712.612	70.8248
715.397	75.2219
718.183	74.6877
720.966	71.4696
723.748	69.739
726.529	73.6982
729.308	70.5529
732.087	69.3406
734.863	71.5884
737.639	68.7648
740.413	70.0508
743.186	72.1515
745.956	73.8091
748.726	73.7494
751.495	72.2256
754.262	70.5553
757.029	71.2629
759.793	73.4178
762.557	76.0322
765.318	73.4732
768.079	75.5193
770.839	80.6819
773.597	78.7395
776.353	82.3226
779.109	83.6142
781.862	83.8642
784.615	90.2052
787.366	97.4651
790.116	106.773
792.865	117.268
795.612	111.023
798.358	114.425
801.102	92.5653
803.846	87.7134
806.588	87.9384
809.329	85.4516
812.068	84.0233
814.806	86.4017
817.542	89.0093
820.278	91.5425
823.012	98.8873
825.744	98.3783
828.476	109.046
831.206	118.987
833.935	128.617
836.662	149.666
839.388	157.297
842.113	160.114
844.836	148.791
847.558	137.739
850.279	119.632
852.999	99.7652
855.718	90.8324
858.435	87.2628
861.15	85.4269
863.865	83.1541
866.577	81.3243
869.289	76.374
871.999	77.1341
874.709	74.7018
877.417	70.8228
880.123	68.6347
882.828	69.4181
885.531	71.0171
888.234	70.0985
890.936	75.5785
893.635	68.9818
896.334	70.7074
899.031	71.5525
901.728	71.4532
904.422	73.1726
907.116	68.4222
909.808	76.9918
912.499	75.8921
915.188	74.0904
917.877	74.8819
920.563	80.9996
923.249	79.6536
925.934	85.9293
928.617	83.1737
931.298	92.7278
933.979	87.9613
936.658	85.1222
939.336	86.3582
942.013	88.693
944.688	92.2926
947.362	96.1518
950.035	95.3203
952.706	106.608
955.377	120.47
958.045	136.896
960.714	160.632
963.38	215.053
966.044	297.73
968.709	474.547
971.372	795.745
974.033	1189
976.693	1602.29
979.351	2671.65
982.009	6811.51
984.665	11089.7
987.32	7764.62
989.974	4145.86
992.626	2121.71
995.277	985.936
997.926	546.848
1000.57	353.901
1003.22	233.087
1005.87	181.672
1008.51	142.934
1011.16	129.507
1013.8	116.483
1016.44	112.523
1019.08	110.158
1021.72	103.957
1024.35	105.047
1026.99	99.8781
1029.63	96.1201
1032.26	91.3088
1034.89	87.1363
1037.52	87.2674
1040.15	92.7373
1042.78	83.0689
1045.41	84.4261
1048.03	76.3126
1050.66	81.5552
1053.28	82.7732
1055.9	77.9564
1058.52	77.0508
1061.14	77.7312
1063.76	77.4551
1066.38	79.8885
1068.99	87.5684
1071.61	85.4655
1074.22	85.4542
1076.83	84.3163
1079.44	76.5153
1082.05	77.0904
1084.66	76.4105
1087.27	81.1109
1089.87	74.0531
1092.48	73.9418
1095.08	73.6738
1097.68	80.4301
1100.29	77.9137
1102.88	77.1463
1105.48	74.6484
1108.08	75.6929
1110.68	81.3421
1113.27	84.3531
1115.86	83.2868
1118.46	85.6255
1121.05	84.8487
1123.64	94.8683
1126.23	87.3186
1128.81	99.9793
1131.4	100.64
1133.98	102.856
1136.57	111.898
1139.15	120.079
1141.73	128.114
1144.31	129.995
1146.89	136.778
1149.47	149.138
1152.04	157.757
1154.62	177.329
1157.19	223.738
1159.76	276.594
1162.33	357.301
1164.9	473.491
1167.47	604.456
1170.04	650.085
1172.61	606.199
1175.17	488.8
1177.74	376.15
1180.3	291.862
1182.86	221.535
1185.42	193.58
1187.98	162.693
1190.54	130.706
1193.09	118.114
1195.65	114.654
1198.2	107.811
1200.76	109.618
1203.31	96.5511
1205.86	96.8962
1208.41	98.1722
1210.96	97.1564
1213.5	93.6347
1216.05	90.3957
1218.59	85.2054
1221.14	84.5727
1223.68	84.279
1226.22	83.6465
1228.76	88.6085
1231.3	81.9733
1233.84	80.872
1236.37	81.9078
1238.91	76.1145
1241.44	77.4613
1243.97	80.9359
1246.5	84.7428
1249.03	78.8979
1251.56	84.297
1254.09	83.8643
1256.62	82.6877
1259.14	78.785
1261.67	82.8841
1264.19	82.4696
1266.71	80.9418
1269.23	81.0982
1271.75	80.5628
1274.27	84.0529
1276.78	85.1416
1279.3	82.67
1281.81	85.3687
1284.33	86.116
1286.84	83.7797
1289.35	82.9065
1291.86	88.2372
1294.37	80.757
1296.88	86.5552
1299.38	89.9535
1301.89	88.3786
1304.39	94.4974
1306.89	95.0264
1309.4	93.1756
1311.9	91.2174
1314.4	93.3583
1316.89	94.1883
1319.39	95.167
1321.89	94.3267
1324.38	97.8801
1326.87	96.5843
1329.37	91.7531
1331.86	102.577
1334.35	100.237
1336.83	93.9016
1339.32	101.519
1341.81	103.898
1344.29	100.505
1346.78	108.537
1349.26	104.358
1351.74	100.795
1354.22	109.09
1356.7	110.921
1359.18	112.567
1361.65	112.889
1364.13	111.156
1366.6	110.783
1369.08	109.777
1371.55	104.013
1374.02	106.075
1376.49	104.013
1378.96	102.402
1381.43	104.984
1383.89	108.751
1386.36	108.965
1388.82	111.775
1391.28	113.539
1393.75	117.189
1396.21	132.853
1398.67	129.864
1401.12	122.395
1403.58	122.934
1406.04	112.9
1408.49	110.626
1410.95	112.367
1413.4	106.91
1415.85	107.446
1418.3	108.033
1420.75	103.703
1423.2	105.379
1425.64	100.198
1428.09	99.9055
1430.53	93.8065
1432.97	105.662
1435.42	109.025
1437.86	102.777
1440.3	105.255
1442.74	100.094
1445.17	100.624
1447.61	99.841
1450.05	101.942
1452.48	103.469
1454.91	107.022
1457.34	100.956
1459.77	100.684
1462.2	102.16
1464.63	102.971
1467.06	104.386
1469.48	104.442
1471.91	101.086
1474.33	106.12
1476.76	103.378
1479.18	99.1999
1481.6	99.1973
1484.02	99.3508
1486.44	98.4261
1488.85	94.7752
1491.27	97.2925
1493.68	105.136
1496.1	97.6114
1498.51	99.1088
1500.92	99.1997
1503.33	97.3979
1505.74	98.2549
1508.15	94.3699
1510.55	102.815
1512.96	101.547
1515.36	101.845
1517.77	90.6038
1520.17	104.216
1522.57	100.737
1524.97	95.8402
1527.37	99.6496
1529.77	101.97
1532.16	97.833
1534.56	95.3819
1536.95	107.585
1539.35	101.577
1541.74	105.11
1544.13	105.6
1546.52	110.332
1548.91	112.882
1551.3	113.688
1553.68	119.737
1556.07	124.426
1558.45	129.831
1560.84	141.871
1563.22	150.341
1565.6	168.743
1567.98	192.097
1570.36	209.107
1572.74	247.12
1575.11	292.205
1577.49	343.495
1579.86	377.334
1582.24	361.329
1584.61	311.555
1586.98	266.421
1589.35	237.262
1591.72	225.727
1594.08	236.5
1596.45	270.522
1598.82	288.745
1601.18	280.715
1603.54	259.134
1605.91	215.9
1608.27	188.501
1610.63	175.758
1612.99	150.443
1615.34	130.894
1617.7	129.669
1620.06	115.981
1622.41	108.942
1624.76	103.047
1627.12	105.513
1629.47	94.6506
1631.82	97.7452
1634.17	101.408
1636.51	95.9655
1638.86	90.3381
1641.21	88.5546
1643.55	85.743
1645.9	91.6623
1648.24	86.5843
1650.58	85.5667
1652.92	82.3737
1655.26	83.0864
1657.6	83.4378
1659.93	85.0316
1662.27	81.6025
1664.6	79.0252
1666.94	79.0384
1669.27	75.5553
1671.6	77.156
1673.93	80.7137
1676.26	76.1838
1678.59	78.0524
1680.92	75.9454
1683.24	78.62
1685.57	81.0929
1687.89	80.011
1690.22	75.2219
1692.54	81.1599
1694.86	80.0189
1697.18	81.7394
1699.5	75.5707
1701.81	78.1543
1704.13	76.344
1706.45	76.4033
1708.76	77.543
1711.07	71.8587
1713.38	68.5628
1715.7	70.2674
1718.01	70.2428
1720.31	74.8409
1722.62	67.1893
1724.93	67.1263
1727.24	67.5962
1729.54	71.7652
1731.84	63.1938
1734.15	68.0488
1736.45	65.3365
1738.75	64.5584
1741.05	64.8261
1743.35	69.9656
1745.64	64.6559
1747.94	65.4159
1750.23	66.2552
1752.53	66.8266
1754.82	60.9793
1757.11	64.8071
1759.4	62.6855
1761.69	63.8266
1763.98	65.6541
1766.27	64.9597
1768.56	63.8682
1770.84	57.3822
1773.13	60.9
1775.41	61.7888
1777.69	61.3008
1779.97	56.6166
1782.25	56.5666
1784.53	58.8605
1786.81	53.8844
1789.09	60.4198
1791.36	63.0186
1793.64	59.5357
1795.91	57.6742
1798.18	55.6459
1800.46	55.3027
1802.73	55.1404
1805	59.023
1807.27	53.4359
1809.53	55.333
1811.8	53.5945
1814.07	54.2015
1816.33	55.6317
1818.59	54.2474
1820.86	54.9674
1823.12	57.2516
1825.38	51.2334
1827.64	56.2498
1829.89	52.9655
1832.15	54.3818
1834.41	53.5168
1836.66	51.2092
1838.92	55.5969
1841.17	56.7191
1843.42	57.4997
1845.67	54.4057
1847.92	56.0171
1850.17	53.1367
1852.42	53.3822
1854.67	53.4237
1856.91	58.5705
1859.16	52.0767
1861.4	53.0413
1863.64	51.8422
1865.88	53.6876
1868.12	50.3367
1870.36	52.4933
1872.6	52.81
1874.84	48.9754
1877.08	57.3486
1879.31	53.2291
1881.54	51.6262
1883.78	51.5909
1886.01	48.9194
1888.24	50.9338
1890.47	50.5056
1892.7	52.5168
1894.93	52.3659
1897.16	49.476
1899.38	49.9655
1901.61	49.2907
1903.83	47.9956
1906.05	46.2688
1908.28	47.8129
1910.5	50.8644
1912.72	52.1264
1914.94	46.674
1917.16	51.2652
1919.37	50.6993
1921.59	51.9141
1923.8	52.239
1926.02	49.84
1928.23	53.1938
1930.44	52.9255
1932.65	46.8781
1934.86	48.2156
1937.07	46.9918
1939.28	45.9794
1941.48	44.6315
1943.69	52.8482
1945.9	44.5744
1948.1	45.6043
1950.3	44.7056
1952.5	46.9332
1954.7	44.7733
1956.9	45.1283
1959.1	42.731
1961.3	46.0352
1963.5	44.1897
1965.69	42.3509
1967.89	40.5119
1970.08	47.7158
1972.27	42.0612
1974.46	42.4542
1976.66	45.2193
1978.84	45.3091
1981.03	41.8028
1983.22	45.3817
1985.41	40.6085
1987.59	41.0904
1989.78	40.7811
1991.96	41.6855
1994.14	38.7058
1996.32	34.864
1998.51	34.5489
2000.69	40.6322
2002.86	40.4633
2005.04	41.2485
2007.22	38.7119
2009.39	40.5702
2011.57	39.2156
2013.74	38.0264
2015.91	43.0784
2018.09	38.1042
2020.26	38.2093
2022.43	39.4118
2024.59	41.3204
2026.76	38.1959
2028.93	36.9183
2031.09	38.4316
2033.26	35.8738
2035.42	34.5766
2037.59	37.2544
2039.75	39.0072
2041.91	39.1404
2044.07	36.0486
2046.23	36.0288
2048.38	34.6104
2050.54	33.8995
2052.7	32.7949
2054.85	33.676
2057	32.136
2059.16	31.3586
2061.31	34.1367
2063.46	33.7428
2065.61	29.6245
2067.76	32.4274
2069.91	28.6166
2072.05	32.779
2074.2	29.0611
2076.34	32.7454
2078.49	30.6577
2080.63	34.5831
2082.77	28.9214
2084.91	29.5385
2087.05	27.3203
2089.19	31.4654
2091.33	29.7428
2093.47	30.8232
2095.6	28.9374
2097.74	30.3359
2099.87	33.307
2102.01	32.4197
2104.14	27.5882
2106.27	30.5722
2108.4	28.3189
2110.53	31.7407
2112.66	30.0704
2114.79	28.8165
2116.91	29.4696
2119.04	29.5089
2121.16	28.6283
2123.29	27.3165
2125.41	30.085
2127.53	31.7492
2129.65	29.2868
2131.77	26.8844
2133.89	29.2548
2136.01	25.5829
2138.12	25.9448
2140.24	25.4314
2142.35	26.2079
2144.47	30.6419
2146.58	28.8022
2148.69	22.3562
2150.8	27.2393
2152.91	28.2848
2155.02	27.3979
2157.13	29.2768
2159.24	30.0981
2161.34	26.009
2163.45	28.8526
2165.55	26.8485
2167.66	26.4927
2169.76	41.0905
2171.86	26.4061
2173.96	23.7153
2176.06	28.3886
2178.16	27.3225
2180.26	27.1313
2182.35	28.1345
2184.45	30.0025
2186.54	30.7524
2188.64	27.3226
2190.73	22.4749
2192.82	22.6773
2194.91	26.1923
2197	24.8462
2199.09	27.9357
2201.18	27.605
2203.27	24.7755
2205.35	25.0703
2207.44	23.9357
2209.52	25.8643
2211.61	28.1025
2213.69	27.513
2215.77	24.2833
2217.85	26.7214
2219.93	24.7732
2222.01	23.9818
2224.09	23.4269
2226.16	25.7531
2228.24	24.6467
2230.31	25.6085
2232.39	25.4057
2234.46	22.4848
2236.53	23.344
2238.6	23.0869
2240.67	24.44
2242.74	22.7311
2244.81	23.7694
2246.88	21.5232
2248.94	22.9774
2251.01	22.8995
2253.07	25.3466
2255.14	19.2984
2257.2	20.9456
2259.26	20.5154
2261.32	21.6163
2263.38	20.9595
2265.44	21.7888
2267.5	22.503
2269.56	23.0508
2271.61	19.5271
2273.67	21.2115
2275.72	24.5448
2277.78	22.0171
2279.83	21.4737
2281.88	22.4555
2283.93	21.2115
2285.98	26.0132
2288.03	22.1045
2290.08	29.5193
2292.12	22.8696
2294.17	24.4796
2296.21	21.0645
2298.26	22.0251
2300.3	21.3331
2302.34	23.9205
2304.38	23.1399
2306.42	22.1525
2308.46	20.5575
2310.5	22.0352
2312.54	19.6954
2314.58	17.2833
2316.61	21.5077
2318.65	20.4245
2320.68	22.7234
2322.71	21.2199
2324.75	19.8665
2326.78	23.876
2328.81	22.0292
2330.84	18.9796
2332.86	20.5084
2334.89	21.5235
2336.92	21.789
2338.94	16.5052
2340.97	20.0495
2342.99	20.2451
2345.02	22.1266
2347.04	20.1446
2349.06	18.3057
2351.08	20.6685
2353.1	21.4591
2355.12	21.7201
2357.13	20.6577
2359.15	18.4099
2361.17	20.549
2363.18	20.9118
2365.19	22.1108
2367.21	21.4696
2369.22	19.1004
2371.23	19.3173
2373.24	21.2132
2375.25	19.144
2377.26	18.4939
2379.27	20.1643
2381.27	21.3723
2383.28	19.4245
2385.28	21.5546
2387.29	19.1902
2389.29	17.5408
2391.29	19.0314
2393.29	16.9436
2395.29	20.0749
2397.29	17.2471
2399.29	20.4222
2401.29	14.1501
2403.28	17.0626
2405.28	17.676
2407.27	17.8091
2409.27	16.2509
2411.26	19.2989
2413.25	19.1565
2415.25	18.642
2417.24	16.3805
2419.22	16.5068
2421.21	17.0675
2423.2	18.997
2425.19	15.872
2427.17	17.0964
2429.16	15.2632
2431.14	15.869
2433.13	21.6699
2435.11	17.297
2437.09	19.0209
2439.07	17.2473
2441.05	18.0786
2443.03	19.5373
2445.01	16.6896
2446.98	20.5683
2448.96	23.0907
2450.93	25.9141
2452.91	23.5314
2454.88	23.1201
2456.85	20.4506
2458.83	18.6676
2460.8	19.1795
2462.77	19.1743
2464.74	18.3307
2466.7	19.2316
2468.67	17.3737
2470.64	16.9613
2472.6	17.642
2474.57	16.8759
2476.53	17.2929
2478.49	19.1204
2480.46	17.8763
2482.42	17.5003
2484.38	17.2451
2486.34	16.9119
2488.29	23.5294
2490.25	19.4538
2492.21	20.6777
2494.16	22.735
2496.12	20.7571
2498.07	19.205
2500.03	22.042
2501.98	17.0611
2503.93	20.2536
2505.88	16.366
2507.83	21.9638
2509.78	27.3226
2511.73	31.7992
2513.67	35.7415
2515.62	32.4927
2517.56	27.5691
2519.51	26.1735
2521.45	19.156
2523.4	20.0407
2525.34	19.5807
2527.28	17.5683
2529.22	15.2291
2531.16	19.6536
2533.1	19.9956
2535.03	20.4021
2536.97	19.0641
2538.91	21.1679
2540.84	25.3324
2542.77	17.8487
2544.71	20.0407
2546.64	17.9715
2548.57	16.8767
2550.5	17.9122
2552.43	14.8266
2554.36	14.1441
2556.29	19.0168
2558.21	14.2971
2560.14	14.4039
2562.07	12.2671
2563.99	15.4041
2565.91	16.4604
2567.84	14.2536
2569.76	13.7054
2571.68	14.0054
2573.6	13.6008
2575.52	14.0633
2577.44	13.5292
2579.36	13.186
2581.27	11.7811
2583.19	13.4597
2585.1	14.3288
2587.02	13.9716
2588.93	14.8539
2590.84	12.8982
2592.75	13.3006
2594.67	14.5385
2596.58	14.8065
2598.48	13.2632
2600.39	14.2675
