105.443	6058.01
108.528	5453.4
111.612	4791.65
114.693	4198.3
117.774	3688.08
120.854	3236.39
123.931	2812.15
127.007	2496.49
130.081	2186.24
133.155	1946.62
136.226	1733.51
139.296	1523.15
142.364	1334.26
145.431	1163.45
148.496	1048.71
151.559	935.677
154.622	827.953
157.682	753.358
160.741	681.286
163.799	620.748
166.855	561.923
169.91	502.11
172.963	448.453
176.014	407.869
179.064	380.119
182.113	355.04
185.16	323.16
188.205	301.871
191.249	272.201
194.291	255.163
197.333	248.615
200.372	232.965
203.409	208.982
206.446	204.176
209.48	201.057
212.514	182.846
215.546	172.538
218.577	164.636
221.605	164.733
224.633	148.859
227.658	146.738
230.682	147.755
233.706	133.379
236.727	135.185
239.747	125.179
242.765	128.905
245.782	126.893
248.797	127.191
251.811	121.792
254.823	119.365
257.834	117.388
260.844	109.661
263.852	112.216
266.858	114.163
269.863	108.575
272.866	107.195
275.868	103.423
278.869	112.559
281.867	109.152
284.865	105.345
287.861	105.541
290.856	104.903
293.848	107.344
296.84	106.585
299.83	103.22
302.819	106.172
305.806	105.078
308.791	103.844
311.775	103.262
314.758	103.673
317.739	102.203
320.719	106.902
323.697	107.66
326.674	104.32
329.649	107.383
332.623	106.236
335.595	109.147
338.566	107.424
341.535	109.166
344.504	100.746
347.47	106.111
350.434	106.086
353.399	109.886
356.36	102.234
359.321	106.107
362.281	100.227
365.238	106.57
368.194	105.458
371.149	98.4428
374.102	110.754
377.054	107.328
380.005	113.157
382.954	115.743
385.901	121.192
388.847	122.213
391.792	128.243
394.735	134.91
397.676	124.375
400.617	123.064
403.555	117.622
406.493	120.338
409.429	115.387
412.363	110.325
415.297	101.929
418.228	103.399
421.158	100.695
424.087	96.0313
427.014	101.947
429.94	97.0757
432.864	104.569
435.787	96.0203
438.709	98.6447
441.629	92.8745
444.547	94.7227
447.464	91.5712
450.38	90.014
453.294	88.7217
456.208	85.44
459.119	85.2362
462.028	81.6725
464.938	80.7241
467.844	90.423
470.75	87.0567
473.654	79.5957
476.557	81.8247
479.459	83.9127
482.359	86.1683
485.257	82.79
488.154	86.3737
491.05	82.2192
493.945	85.4489
496.838	78.3273
499.729	79.8057
502.619	83.6949
505.508	78.2515
508.395	81.1332
511.281	84.298
514.165	79.1232
517.049	77.997
519.93	80.4587
522.81	78.3205
525.689	77.6254
528.566	82.2147
531.442	80.1587
534.317	79.9791
537.19	77.8917
540.062	78.09
542.932	80.5324
545.801	79.0379
548.669	84.6793
551.534	85.211
554.399	88.593
557.262	91.6275
560.124	91.1646
562.985	93.1602
565.844	92.0284
568.702	95.9165
571.558	104.174
574.413	106.133
577.266	120.053
580.118	132.719
582.969	154.003
585.819	189.137
588.666	249.799
591.513	351.131
594.359	544.234
597.202	767.096
600.045	777.812
602.885	591.893
605.725	399.507
608.564	268.052
611.4	199.623
614.236	156.177
617.07	132.043
619.902	126.226
622.734	111.5
625.564	100.146
628.393	95.3456
631.219	98.7182
634.045	96.6555
636.87	88.5774
639.693	92.2855
642.515	94.1564
645.335	87.4135
648.153	85.2942
650.971	89.1288
653.787	89.0902
656.602	86.2103
659.416	85.5296
662.228	90.5205
665.038	91.9346
667.848	91.0404
670.655	92.8516
673.462	93.1214
676.268	90.6729
679.071	84.5562
681.874	81.723
684.675	83.9632
687.475	82.3536
690.273	81.8055
693.07	79.5158
695.866	79.273
698.66	74.9092
701.453	73.3095
704.244	77.4267
707.035	72.7152
709.824	73.79
712.612	69.7291
715.397	76.2501
718.183	78.1148
720.966	70.0138
723.748	73.7346
726.529	76.9513
729.308	75.4965
732.087	75.4399
734.863	72.5158
737.639	74.0973
740.413	72.8714
743.186	79.4206
745.956	69.3551
748.726	72.7227
751.495	79.4846
754.262	74.0203
757.029	71.4032
759.793	74.5098
762.557	74.667
765.318	80.5444
768.079	78.6132
770.839	79.1534
773.597	83.8
776.353	85.8079
779.109	81.6831
781.862	85.2701
784.615	92.2624
787.366	97.3095
790.116	108.295
792.865	116.03
795.612	116.77
798.358	110.511
801.102	100.053
803.846	94.0955
806.588	87.5299
809.329	89.3176
812.068	87.7798
814.806	86.9333
817.542	94.5136
820.278	93.0065
823.012	100.228
825.744	107.516
828.476	111.94
831.206	116.262
833.935	127.589
836.662	144.28
839.388	163.492
842.113	172.255
844.836	157.761
847.558	130.354
850.279	116.79
852.999	108.033
855.718	94.4399
858.435	93.4816
861.15	85.2524
863.865	82.5481
866.577	79.924
869.289	77.8513
871.999	77.5339
874.709	73.036
877.417	73.9925
880.123	71.9937
882.828	76.6012
885.531	73.4901
888.234	74.7327
890.936	74.4645
893.635	76.5979
896.334	75.2782
899.031	74.0902
901.728	70.8156
904.422	75.1124
907.116	72.1229
909.808	78.2883
912.499	76.0215
915.188	78.6704
917.877	78.8135
920.563	77.9717
923.249	78.105
925.934	80.7361
928.617	87.0457
931.298	95.4406
933.979	95.139
936.658	90.6971
939.336	91.8558
942.013	93.4659
944.688	98.9543
947.362	90.4548
950.035	102.962
952.706	111.773
955.377	124.133
958.045	144.341
960.714	171.925
963.38	215.937
966.044	300.222
968.709	485.107
971.372	770.893
974.033	1187.76
976.693	1616.97
979.351	2701.29
982.009	6851.72
984.665	11052
987.32	7783.37
989.974	4111.14
992.626	2099.56
995.277	986.048
997.926	546.565
1000.57	356.643
1003.22	233.535
1005.87	185.945
1008.51	148.046
1011.16	135.216
1013.8	125.311
1016.44	114.592
1019.08	109.602
1021.72	108.215
1024.35	102.193
1026.99	100.751
1029.63	99.7591
1032.26	95.3674
1034.89	89.1275
1037.52	87.5331
1040.15	86.6509
1042.78	84.6034
1045.41	83.5473
1048.03	84.1683
1050.66	79.3551
1053.28	83.8263
1055.9	77.577
1058.52	82.6904
1061.14	86.8328
1063.76	83.5621
1066.38	87.2848
1068.99	87.3479
1071.61	90.5444
1074.22	83.3735
1076.83	88.3373
1079.44	88.5822
1082.05	82.7817
1084.66	81.3314
1087.27	82.7143
1089.87	76.4381
1092.48	78.1162
1095.08	80.7063
1097.68	81.2645
1100.29	78.9327
1102.88	78.6971
1105.48	80.7576
1108.08	81.751
1110.68	87.6158
1113.27	80.7836
1115.86	80.6785
1118.46	88.0892
1121.05	87.56
1123.64	88.1983
1126.23	95.3818
1128.81	99.9209
1131.4	98.5629
1133.98	107.508
1136.57	116.002
1139.15	117.946
1141.73	125.932
1144.31	130.265
1146.89	146.935
1149.47	148.434
1152.04	157.635
1154.62	188.188
1157.19	215.722
1159.76	282.305
1162.33	361.665
1164.9	482.763
1167.47	611.836
1170.04	654.671
1172.61	611.807
1175.17	497.538
1177.74	384.69
1180.3	285.919
1182.86	230.058
1185.42	185.199
1187.98	162.393
1190.54	147.076
1193.09	126.981
1195.65	118.796
1198.2	109.112
1200.76	104.473
1203.31	100.18
1205.86	107.793
1208.41	104.45
1210.96	99.9374
1213.5	94.4518
1216.05	91.0115
1218.59	90.5272
1221.14	89.8023
1223.68	88.5537
1226.22	81.3448
1228.76	84.2766
1231.3	86.1744
1233.84	84.8439
1236.37	82.0256
1238.91	85.3436
1241.44	75.5444
1243.97	83.3177
1246.5	86.334
1249.03	84.2161
1251.56	86.4737
1254.09	84.7202
1256.62	88.5957
1259.14	87.5674
1261.67	82.865
1264.19	80.806
1266.71	83.3529
1269.23	79.8439
1271.75	85.2608
1274.27	82.645
1276.78	82.0855
1279.3	89.032
1281.81	87.4225
1284.33	87.0416
1286.84	89.9706
1289.35	91.943
1291.86	86.6926
1294.37	84.4868
1296.88	93.2423
1299.38	87.8773
1301.89	91.2645
1304.39	90.0917
1306.89	91.6531
1309.4	93.8357
1311.9	89.2691
1314.4	91.2279
1316.89	92.7038
1319.39	98.6667
1321.89	96.1349
1324.38	96.9312
1326.87	99.0404
1329.37	100.696
1331.86	101.979
1334.35	103.46
1336.83	100.141
1339.32	104.778
1341.81	100.632
1344.29	106.044
1346.78	108.922
1349.26	108.821
1351.74	109.627
1354.22	111.427
1356.7	110.568
1359.18	113.028
1361.65	107.782
1364.13	115.952
1366.6	114.112
1369.08	114.528
1371.55	113.278
1374.02	112.837
1376.49	111.616
1378.96	106.911
1381.43	104.883
1383.89	107.855
1386.36	110.661
1388.82	107.537
1391.28	110.485
1393.75	119.609
1396.21	131.597
1398.67	139.649
1401.12	126.02
1403.58	117.559
1406.04	115.593
1408.49	110.29
1410.95	107.296
1413.4	107.169
1415.85	105.761
1418.3	105.922
1420.75	102.647
1423.2	102.532
1425.64	104.476
1428.09	107.583
1430.53	104.703
1432.97	102.07
1435.42	103.881
1437.86	103.313
1440.3	105.697
1442.74	106.307
1445.17	101.994
1447.61	104.224
1450.05	104.01
1452.48	104.124
1454.91	109.559
1457.34	106.598
1459.77	102.848
1462.2	105.87
1464.63	103.644
1467.06	108.155
1469.48	107.209
1471.91	102.365
1474.33	107.602
1476.76	106.532
1479.18	109.437
1481.6	102.629
1484.02	103.214
1486.44	98.542
1488.85	100.903
1491.27	102.739
1493.68	105.453
1496.1	96.8494
1498.51	102.024
1500.92	96.1092
1503.33	103.458
1505.74	97.0865
1508.15	98.9333
1510.55	102.514
1512.96	100.491
1515.36	96.2679
1517.77	102.723
1520.17	101.111
1522.57	96.4629
1524.97	102.388
1527.37	100.496
1529.77	103.16
1532.16	101.496
1534.56	100.735
1536.95	107.46
1539.35	102.132
1541.74	102.957
1544.13	113.431
1546.52	108.672
1548.91	117.985
1551.3	113.265
1553.68	118.866
1556.07	134.14
1558.45	132.549
1560.84	146.663
1563.22	151.861
1565.6	174.913
1567.98	189.569
1570.36	219.572
1572.74	248.884
1575.11	293.361
1577.49	346.86
1579.86	367.742
1582.24	357.29
1584.61	317.712
1586.98	267.768
1589.35	240.756
1591.72	229.61
1594.08	243.506
1596.45	274.167
1598.82	296.84
1601.18	291.06
1603.54	256.302
1605.91	219.274
1608.27	198.605
1610.63	162.253
1612.99	150.431
1615.34	140.679
1617.7	126.699
1620.06	124.313
1622.41	114.781
1624.76	105.425
1627.12	108.974
1629.47	101.806
1631.82	98.1691
1634.17	97.6436
1636.51	90.865
1638.86	99.4077
1641.21	87.9732
1643.55	95.8714
1645.9	86.0773
1648.24	93.4243
1650.58	87.6871
1652.92	84.6235
1655.26	85.9209
1657.6	85.1237
1659.93	89.7898
1662.27	82.6992
1664.6	80.1573
1666.94	83.472
1669.27	83.8761
1671.6	80.7197
1673.93	82.2501
1676.26	83.8806
1678.59	77.3102
1680.92	78.1544
1683.24	82.5666
1685.57	75.2537
1687.89	75.5136
1690.22	79.3765
1692.54	82.5082
1694.86	85.6428
1697.18	77.3372
1699.5	79.0416
1701.81	82.6888
1704.13	78.5907
1706.45	70.7439
1708.76	84.8915
1711.07	72.7241
1713.38	70.3372
1715.7	71.4206
1718.01	74.3635
1720.31	68.9191
1722.62	72.427
1724.93	69.0479
1727.24	72.0672
1729.54	74.9516
1731.84	69.6786
1734.15	73.7642
1736.45	70.6235
1738.75	69.5262
1741.05	66.7904
1743.35	64.1474
1745.64	68.4904
1747.94	68.393
1750.23	65.0062
1752.53	67.029
1754.82	69.6531
1757.11	65.8098
1759.4	63.5495
1761.69	62.7918
1763.98	67.0006
1766.27	69.7127
1768.56	65.7053
1770.84	65.2624
1773.13	64.955
1775.41	67.8447
1777.69	64.6723
1779.97	61.7255
1782.25	63.414
1784.53	65.0039
1786.81	61.1864
1789.09	61.9465
1791.36	63.2824
1793.64	61.1825
1795.91	62.3868
1798.18	57.9706
1800.46	61.246
1802.73	59.2342
1805	61.2378
1807.27	60.7798
1809.53	58.4559
1811.8	59.2582
1814.07	58.0184
1816.33	60.5883
1818.59	59.2913
1820.86	54.7063
1823.12	60.1616
1825.38	59.2284
1827.64	59.6514
1829.89	56.1148
1832.15	57.5158
1834.41	55.3454
1836.66	58.1925
1838.92	58.07
1841.17	51.7678
1843.42	59.6366
1845.67	58.4563
1847.92	60.1925
1850.17	53.929
1852.42	59.3909
1854.67	56.9605
1856.91	60.1761
1859.16	52.2796
1861.4	55.5299
1863.64	50.8814
1865.88	55.5082
1868.12	56.1148
1870.36	53.3102
1872.6	55.6428
1874.84	56.286
1877.08	50.7038
1879.31	56.5381
1881.54	50.3548
1883.78	52.115
1886.01	54.0404
1888.24	50.4995
1890.47	52.31
1892.7	55.0103
1894.93	51.7993
1897.16	57.6188
1899.38	54.4548
1901.61	56.6823
1903.83	54.0293
1906.05	53.63
1908.28	47.0348
1910.5	51.2259
1912.72	53.7399
1914.94	57.1827
1917.16	53.1772
1919.37	53.4805
1921.59	53.4144
1923.8	53.7559
1926.02	53.7365
1928.23	50.2147
1930.44	55.4997
1932.65	51.3793
1934.86	52.985
1937.07	48.8386
1939.28	52.9937
1941.48	48.1156
1943.69	47.349
1945.9	49.8974
1948.1	47.9085
1950.3	48.3923
1952.5	46.644
1954.7	52.589
1956.9	45.0679
1959.1	47.604
1961.3	47.1966
1963.5	48.1156
1965.69	50.1831
1967.89	48.4746
1970.08	49.3013
1972.27	49.8057
1974.46	46.225
1976.66	45.3258
1978.84	44.8889
1981.03	46.8658
1983.22	48.1104
1985.41	41.0062
1987.59	43.7477
1989.78	41.5217
1991.96	44.7505
1994.14	45.1864
1996.32	46.5675
1998.51	43.6328
2000.69	40.7123
2002.86	42.1527
2005.04	40.9925
2007.22	42.6428
2009.39	40.1306
2011.57	44.1332
2013.74	38.5539
2015.91	40.7313
2018.09	41.0404
2020.26	41.7817
2022.43	41.2325
2024.59	41.6592
2026.76	38.9992
2028.93	37.8583
2031.09	40.8745
2033.26	38.0679
2035.42	40.8954
2037.59	40.1991
2039.75	45.4666
2041.91	40.9223
2044.07	37.3205
2046.23	37.4444
2048.38	39.5033
2050.54	34.0115
2052.7	36.3971
2054.85	38.0156
2057	38.3609
2059.16	40.3061
2061.31	37.923
2063.46	35.6336
2065.61	36.9945
2067.76	36.9761
2069.91	38.9249
2072.05	35.2425
2074.2	34.0814
2076.34	36.1683
2078.49	33.7703
2080.63	36.6336
2082.77	32.6536
2084.91	32.8469
2087.05	34.6472
2089.19	35.4643
2091.33	33.9027
2093.47	32.8695
2095.6	33.8869
2097.74	38.176
2099.87	33.8933
2102.01	34.7465
2104.14	35.6428
2106.27	34.2913
2108.4	33.0579
2110.53	32.2243
2112.66	32.0452
2114.79	34.5536
2116.91	29.9699
2119.04	32.5444
2121.16	33.1507
2123.29	33.3159
2125.41	30.2913
2127.53	31.4823
2129.65	30.0396
2131.77	32.877
2133.89	32.6555
2136.01	31.7822
2138.12	28.9404
2140.24	29.3891
2142.35	31.2848
2144.47	29.8057
2146.58	30.5876
2148.69	30.1314
2150.8	26.4582
2152.91	31.457
2155.02	30.327
2157.13	31.1388
2159.24	29.6725
2161.34	31.8074
2163.45	29.3749
2165.55	33.2626
2167.66	26.3942
2169.76	40.5251
2171.86	29.5329
2173.96	28.7756
2176.06	33.2069
2178.16	26.7439
2180.26	33.3161
2182.35	32.7068
2184.45	33.305
2186.54	32.6106
2188.64	31.3766
2190.73	27.9945
2192.82	27.9513
2194.91	33.0021
2197	30.3548
2199.09	32.7458
2201.18	31.3861
2203.27	25.0699
2205.35	27.7522
2207.44	26.574
2209.52	25.296
2211.61	30.2913
2213.69	30.1089
2215.77	26.7439
2217.85	28.2185
2219.93	26.0085
2222.01	29.1249
2224.09	28.5957
2226.16	27.0164
2228.24	26.6115
2230.31	27.7898
2232.39	24.707
2234.46	26.3788
2236.53	26.1513
2238.6	26.4823
2240.67	24.7822
2242.74	23.6293
2244.81	26.8777
2246.88	24.4868
2248.94	24.5536
2251.01	27.0313
2253.07	28.5576
2255.14	29.3529
2257.2	24.0404
2259.26	26.8828
2261.32	24.5299
2263.38	28.2419
2265.44	27.4682
2267.5	24.9708
2269.56	28.7862
2271.61	24.5497
2273.67	25.2419
2275.72	24.3234
2277.78	23.6723
2279.83	27.3459
2281.88	21.496
2283.93	28.8753
2285.98	26.6366
2288.03	30.1092
2290.08	30.0635
2292.12	24.2248
2294.17	25.9073
2296.21	23.2003
2298.26	25.7135
2300.3	23.6844
2302.34	28.8416
2304.38	24.3529
2306.42	24.5844
2308.46	22.9761
2310.5	29.589
2312.54	26.6492
2314.58	22.56
2316.61	22.9365
2318.65	20.697
2320.68	23.9769
2322.71	26.5085
2324.75	25.339
2326.78	23.1048
2328.81	24.1124
2330.84	20.363
2332.86	22.8569
2334.89	23.6823
2336.92	24.2753
2338.94	20.5077
2340.97	24.6411
2342.99	26.628
2345.02	24.6555
2347.04	22.396
2349.06	23.4144
2351.08	20.8015
2353.1	19.6428
2355.12	21.953
2357.13	24.525
2359.15	24.5497
2361.17	23.2243
2363.18	23.677
2365.19	25.3124
2367.21	21.6604
2369.22	21.1482
2371.23	21.0753
2373.24	22.3735
2375.25	21.2147
2377.26	26.5614
2379.27	22.9843
2381.27	22.2161
2383.28	21.7182
2385.28	19.7338
2387.29	24.1864
2389.29	23.9781
2391.29	23.1148
2393.29	20.3309
2395.29	21.4047
2397.29	24.7544
2399.29	23.4345
2401.29	19.7246
2403.28	21.2883
2405.28	18.5044
2407.27	22.5934
2409.27	21.179
2411.26	21.4489
2413.25	17.381
2415.25	18.958
2417.24	22.3548
2419.22	21.7024
2421.21	17.4682
2423.2	21.8775
2425.19	21.4497
2427.17	21.279
2429.16	19.4723
2431.14	20.0892
2433.13	23.4796
2435.11	17.8716
2437.09	21.9045
2439.07	16.855
2441.05	17.9642
2443.03	23.9791
2445.01	20.4584
2446.98	25.8193
2448.96	23.603
2450.93	26.7227
2452.91	24.4885
2454.88	22.7916
2456.85	24.2556
2458.83	18.3536
2460.8	23.8889
2462.77	24.8378
2464.74	19.9568
2466.7	20.0138
2468.67	23.7424
2470.64	18.577
2472.6	19.6369
2474.57	20.6831
2476.53	19.5143
2478.49	22.1334
2480.46	22.8275
2482.42	20.0798
2484.38	22.8433
2486.34	20.9173
2488.29	24.7068
2490.25	23.4073
2492.21	25.7386
2494.16	24.9248
2496.12	27.3198
2498.07	26.4748
2500.03	22.099
2501.98	23.7658
2503.93	22.5091
2505.88	22.2819
2507.83	22.5852
2509.78	29.6442
2511.73	35.105
2513.67	39.2824
2515.62	34.4629
2517.56	33.1831
2519.51	25.486
2521.45	18.3742
2523.4	21.7644
2525.34	21.4288
2527.28	24.5534
2529.22	21.363
2531.16	23.577
2533.1	22.5336
2535.03	22.5957
2536.97	21.4384
2538.91	24.8375
2540.84	25.7916
2542.77	22.5617
2544.71	25.644
2546.64	19.8439
2548.57	18.0719
2550.5	21.0975
2552.43	16.3646
2554.36	18.7477
2556.29	16.4124
2558.21	17.2362
2560.14	15.784
2562.07	17.2883
2563.99	15.4682
2565.91	19.5169
2567.84	19.6576
2569.76	16.2738
2571.68	16.2103
2573.6	15.8103
2575.52	19.4564
2577.44	18.3074
2579.36	17.1089
2581.27	16.372
2583.19	19.3765
2585.1	14.7194
2587.02	17.6411
2588.93	17.8179
2590.84	16.6216
2592.75	18.1288
2594.67	18.0975
2596.58	15.5034
2598.48	16.9127
2600.39	15.1802
