105.443	6066.98
108.528	5498.59
111.612	4819.4
114.693	4251.4
117.774	3718.71
120.854	3238.96
123.931	2842.29
127.007	2490.27
130.081	2202.07
133.155	1944.96
136.226	1722.94
139.296	1531
142.364	1333.11
145.431	1178.21
148.496	1057.13
151.559	929.209
154.622	842.665
157.682	761.716
160.741	678.382
163.799	617.734
166.855	565.431
169.91	521.562
172.963	459.041
176.014	422.579
179.064	385.353
182.113	351.888
185.16	320.732
188.205	307.482
191.249	288.674
194.291	267.568
197.333	257.94
200.372	234.849
203.409	222.098
206.446	212.567
209.48	195.258
212.514	189.32
215.546	180.218
218.577	170.271
221.605	167.02
224.633	159
227.658	155.443
230.682	144.29
233.706	141.82
236.727	138.851
239.747	127.206
242.765	133.905
245.782	131.397
248.797	132.845
251.811	125.586
254.823	121.95
257.834	120.828
260.844	119.05
263.852	114.629
266.858	118.704
269.863	117.049
272.866	113.015
275.868	112.246
278.869	111.671
281.867	114.688
284.865	112.586
287.861	109.947
290.856	112.806
293.848	113.187
296.84	115.987
299.83	107.954
302.819	112.14
305.806	107.843
308.791	106.26
311.775	110.454
314.758	104.62
317.739	110.213
320.719	106.404
323.697	110.479
326.674	110.683
329.649	110.414
332.623	110.511
335.595	105.606
338.566	108.808
341.535	111.666
344.504	109.912
347.47	106.814
350.434	111.055
353.399	108.817
356.36	109.302
359.321	103.658
362.281	106.236
365.238	110.54
368.194	107.722
371.149	111.363
374.102	112.651
377.054	113.261
380.005	113.136
382.954	125.731
385.901	126.792
388.847	132.28
391.792	123.962
394.735	131.005
397.676	129.62
400.617	123.814
403.555	123.288
406.493	120.311
409.429	114.601
412.363	109.74
415.297	111.791
418.228	110.135
421.158	106.372
424.087	103.157
427.014	99.4688
429.94	99.9239
432.864	99.517
435.787	95.008
438.709	98.6274
441.629	91.8711
444.547	94.8456
447.464	94.4692
450.38	94.0808
453.294	86.6099
456.208	92.188
459.119	90.0512
462.028	88.6221
464.938	91.1655
467.844	87.2597
470.75	87.5227
473.654	80.1866
476.557	87.922
479.459	81.7321
482.359	85.994
485.257	84.2465
488.154	83.3171
491.05	79.2138
493.945	81.0528
496.838	84.9516
499.729	77.4433
502.619	82.6489
505.508	81.9189
508.395	79.6354
511.281	80.5699
514.165	85.5608
517.049	80.9185
519.93	86.3657
522.81	77.4397
525.689	85.1919
528.566	83.6874
531.442	84.8765
534.317	79.8078
537.19	83.5035
540.062	79.1788
542.932	83.7457
545.801	80.7526
548.669	81.4548
551.534	91.3673
554.399	81.9571
557.262	91.0133
560.124	91.064
562.985	92.2059
565.844	96.944
568.702	107.823
571.558	101.209
574.413	106.627
577.266	120.601
580.118	130.372
582.969	153.031
585.819	184.994
588.666	237.891
591.513	349.469
594.359	520.321
597.202	756.417
600.045	796.504
602.885	594.168
605.725	409.483
608.564	272.483
611.4	208.004
614.236	160.957
617.07	136.564
619.902	126.44
622.734	114.871
625.564	110.528
628.393	102.842
631.219	101.63
634.045	94.7779
636.87	90.75
639.693	85.8587
642.515	90.879
645.335	86.4182
648.153	90.6057
650.971	90.2553
653.787	92.2265
656.602	86.2965
659.416	86.5934
662.228	89.2608
665.038	97.807
667.848	98.2601
670.655	92.429
673.462	95.475
676.268	93.5212
679.071	91.0705
681.874	86.6337
684.675	88.6515
687.475	90.1711
690.273	84.8533
693.07	85.1066
695.866	75.0948
698.66	81.4282
701.453	78.7045
704.244	74.6952
707.035	74.9553
709.824	78.0017
712.612	73.9587
715.397	76.3105
718.183	76.9069
720.966	71.7499
723.748	74.6489
726.529	72.9567
729.308	72.5837
732.087	73.9433
734.863	76.1112
737.639	74.5393
740.413	80.1788
743.186	73.7372
745.956	71.2222
748.726	72.3274
751.495	75.6362
754.262	82.4325
757.029	78.592
759.793	77.3451
762.557	82.5543
765.318	85.6325
768.079	80.4959
770.839	81.4116
773.597	84.8955
776.353	83.3418
779.109	89.0628
781.862	89.6405
784.615	93.1653
787.366	104.493
790.116	110.184
792.865	117.72
795.612	119.947
798.358	109.209
801.102	100.189
803.846	96.7242
806.588	89.1921
809.329	97.5791
812.068	93.3299
814.806	92.4012
817.542	102.449
820.278	98.1481
823.012	104.098
825.744	106.762
828.476	111.156
831.206	120.243
833.935	132.083
836.662	146.261
839.388	158.26
842.113	167.714
844.836	156.807
847.558	136.339
850.279	116.066
852.999	105.408
855.718	97.3193
858.435	95.0515
861.15	87.478
863.865	81.0361
866.577	81.9108
869.289	77.6948
871.999	82.0808
874.709	77.1944
877.417	75.7716
880.123	74.9259
882.828	75.9568
885.531	70.6261
888.234	71.9278
890.936	76.7253
893.635	76.4171
896.334	76.8665
899.031	79.3436
901.728	76.6762
904.422	72.8152
907.116	77.8664
909.808	73.2955
912.499	80.5188
915.188	77.4066
917.877	78.1136
920.563	78.4571
923.249	80.6878
925.934	81.4959
928.617	90.7181
931.298	97.5805
933.979	96.5829
936.658	97.1392
939.336	94.1908
942.013	91.7718
944.688	96.3684
947.362	95.278
950.035	106.778
952.706	111.194
955.377	122.168
958.045	140.953
960.714	171.94
963.38	222.395
966.044	300.793
968.709	488.743
971.372	790.938
974.033	1188.69
976.693	1600.22
979.351	2702.43
982.009	6875.06
984.665	11071.8
987.32	7775.76
989.974	4107.24
992.626	2120.42
995.277	1000.53
997.926	543.673
1000.57	348.831
1003.22	233.376
1005.87	180.696
1008.51	145.113
1011.16	128.922
1013.8	121.288
1016.44	112.18
1019.08	111.036
1021.72	109.329
1024.35	106.274
1026.99	104.444
1029.63	100.905
1032.26	95.9954
1034.89	93.4462
1037.52	85.9637
1040.15	83.6084
1042.78	86.5716
1045.41	81.1921
1048.03	81.7422
1050.66	81.3553
1053.28	80.0296
1055.9	85.787
1058.52	82.6874
1061.14	84.8148
1063.76	88.1686
1066.38	82.6007
1068.99	90.686
1071.61	81.529
1074.22	86.9838
1076.83	86.4896
1079.44	84.3669
1082.05	83.8877
1084.66	80.925
1087.27	82.4306
1089.87	77.6582
1092.48	75.3618
1095.08	79.0698
1097.68	79.7554
1100.29	81.1943
1102.88	82.1765
1105.48	82.8533
1108.08	87.76
1110.68	82.6529
1113.27	84.5099
1115.86	83.0096
1118.46	91.1805
1121.05	88.4831
1123.64	92.1641
1126.23	97.1563
1128.81	97.1063
1131.4	110.214
1133.98	107.99
1136.57	120.034
1139.15	126.3
1141.73	126.351
1144.31	135.414
1146.89	144.156
1149.47	144.703
1152.04	165.462
1154.62	186.529
1157.19	225.951
1159.76	279.045
1162.33	371.105
1164.9	472.898
1167.47	595.695
1170.04	653.209
1172.61	597.565
1175.17	500.251
1177.74	372.65
1180.3	294.525
1182.86	231.804
1185.42	188.946
1187.98	165.303
1190.54	141.867
1193.09	129.064
1195.65	120.036
1198.2	114.589
1200.76	103.736
1203.31	101.385
1205.86	109.039
1208.41	104.834
1210.96	103.935
1213.5	94.6531
1216.05	92.2913
1218.59	86.7118
1221.14	90.9418
1223.68	81.4143
1226.22	91.2626
1228.76	90.5436
1231.3	84.5856
1233.84	84.2518
1236.37	83.1483
1238.91	89.4578
1241.44	81.3321
1243.97	85.9455
1246.5	82.2523
1249.03	83.9124
1251.56	88.1403
1254.09	82.6221
1256.62	84.8664
1259.14	83.4973
1261.67	83.8432
1264.19	83.4003
1266.71	90.4908
1269.23	84.8397
1271.75	87.9138
1274.27	84.7603
1276.78	84.7029
1279.3	87.4042
1281.81	85.5471
1284.33	91.6959
1286.84	86.55
1289.35	88.3634
1291.86	83.574
1294.37	91.4277
1296.88	95.6631
1299.38	92.4525
1301.89	92.584
1304.39	91.0949
1306.89	91.0311
1309.4	96.2766
1311.9	90.2266
1314.4	101.383
1316.89	91.6975
1319.39	98.7693
1321.89	95.3365
1324.38	97.3785
1326.87	99.1704
1329.37	102.709
1331.86	97.7331
1334.35	109.445
1336.83	107.089
1339.32	106.475
1341.81	103.335
1344.29	107.474
1346.78	109.183
1349.26	113.112
1351.74	113.835
1354.22	115.16
1356.7	117.511
1359.18	114.837
1361.65	120.57
1364.13	117.519
1366.6	109.677
1369.08	113.726
1371.55	106.393
1374.02	111.588
1376.49	114.081
1378.96	109.955
1381.43	109.016
1383.89	109.229
1386.36	117.981
1388.82	111.858
1391.28	111.913
1393.75	122.644
1396.21	132.573
1398.67	133.671
1401.12	128.762
1403.58	126.348
1406.04	117.242
1408.49	108.777
1410.95	115.007
1413.4	106.4
1415.85	106.488
1418.3	110.595
1420.75	105.118
1423.2	104.918
1425.64	103.481
1428.09	108.718
1430.53	106.554
1432.97	102.411
1435.42	101.444
1437.86	102.14
1440.3	105.18
1442.74	103.764
1445.17	104.993
1447.61	100.298
1450.05	104.806
1452.48	101.579
1454.91	100.901
1457.34	105.661
1459.77	102.584
1462.2	104.519
1464.63	106.433
1467.06	109.363
1469.48	113.75
1471.91	107.302
1474.33	110.317
1476.76	107.246
1479.18	108.378
1481.6	107.843
1484.02	104.741
1486.44	102.497
1488.85	101.663
1491.27	104.114
1493.68	103.686
1496.1	97.3569
1498.51	101.787
1500.92	99.6655
1503.33	97.3824
1505.74	99.8586
1508.15	96.2965
1510.55	101.096
1512.96	105.327
1515.36	101.079
1517.77	104.136
1520.17	101.862
1522.57	103.81
1524.97	105.307
1527.37	103.019
1529.77	101.219
1532.16	103.253
1534.56	102.598
1536.95	105.343
1539.35	106.519
1541.74	102.349
1544.13	112.377
1546.52	107.13
1548.91	117.781
1551.3	116.92
1553.68	129.598
1556.07	126.953
1558.45	135.474
1560.84	135.608
1563.22	149.465
1565.6	173.414
1567.98	192.024
1570.36	216.49
1572.74	242.593
1575.11	303.875
1577.49	341.16
1579.86	372.481
1582.24	362.385
1584.61	310.025
1586.98	260.436
1589.35	235.269
1591.72	229.386
1594.08	244.045
1596.45	266.191
1598.82	293.175
1601.18	285.84
1603.54	254.809
1605.91	221.351
1608.27	193.762
1610.63	169.252
1612.99	150.942
1615.34	139.984
1617.7	126.593
1620.06	128.32
1622.41	112.985
1624.76	110.667
1627.12	105.093
1629.47	105.478
1631.82	103.905
1634.17	95.0743
1636.51	94.0575
1638.86	94.6902
1641.21	94.6007
1643.55	87.7029
1645.9	90.0459
1648.24	92.4756
1650.58	88.9263
1652.92	86.0936
1655.26	79.4656
1657.6	84.8307
1659.93	85.2877
1662.27	84.8023
1664.6	81.7245
1666.94	83.7561
1669.27	80.7835
1671.6	80.9253
1673.93	81.1323
1676.26	84.5651
1678.59	87.9595
1680.92	79.5767
1683.24	82.5002
1685.57	78.2585
1687.89	81.0311
1690.22	87.9528
1692.54	84.1731
1694.86	78.0017
1697.18	80.9464
1699.5	84.1967
1701.81	79.4745
1704.13	80.2597
1706.45	78.0195
1708.76	84.29
1711.07	76.1915
1713.38	75.5862
1715.7	73.9745
1718.01	75.5508
1720.31	69.6389
1722.62	71.6878
1724.93	72.0679
1727.24	79.348
1729.54	77.1662
1731.84	71.4539
1734.15	70.1474
1736.45	64.6827
1738.75	68.7399
1741.05	65.2318
1743.35	65.2643
1745.64	66.9964
1747.94	70.2229
1750.23	71.9418
1752.53	71.3926
1754.82	69.0017
1757.11	63.9224
1759.4	70.5394
1761.69	66.7183
1763.98	68.3924
1766.27	69.8283
1768.56	64.6093
1770.84	64.5381
1773.13	64.1905
1775.41	63.0833
1777.69	64.1905
1779.97	60.3326
1782.25	61.9722
1784.53	63.4417
1786.81	62.2892
1789.09	63.1215
1791.36	60.2514
1793.64	62.1536
1795.91	59.2061
1798.18	61.3568
1800.46	63.3116
1802.73	60.6404
1805	64.0888
1807.27	59.053
1809.53	58.8841
1811.8	60.5651
1814.07	62.525
1816.33	55.1446
1818.59	58.311
1820.86	61.4848
1823.12	57.8345
1825.38	60.5548
1827.64	55.311
1829.89	57.9138
1832.15	57.363
1834.41	57.8078
1836.66	58.8983
1838.92	59.1876
1841.17	57.718
1843.42	58.5941
1845.67	53.0385
1847.92	61.7045
1850.17	55.7286
1852.42	57.713
1854.67	54.8431
1856.91	52.5651
1859.16	57.3908
1861.4	57.5967
1863.64	54.7
1865.88	54.377
1868.12	56.7165
1870.36	52.9587
1872.6	54.7183
1874.84	54.2044
1877.08	54.0292
1879.31	56.4437
1881.54	52.9737
1883.78	57.5651
1886.01	53.7157
1888.24	58.1597
1890.47	54.1395
1892.7	54.9239
1894.93	54.179
1897.16	52.5915
1899.38	51.4688
1901.61	51.4395
1903.83	57.8959
1906.05	50.7393
1908.28	51.0056
1910.5	50.6388
1912.72	51.4316
1914.94	52.7196
1917.16	51.4182
1919.37	55.3694
1921.59	58.7177
1923.8	57.5253
1926.02	53.3958
1928.23	53.1866
1930.44	55.0386
1932.65	47.9621
1934.86	53.8229
1937.07	50.4017
1939.28	48.0094
1941.48	48.9447
1943.69	52.7718
1945.9	46.3028
1948.1	49.5251
1950.3	48.8199
1952.5	48.7911
1954.7	50.7475
1956.9	50.1392
1959.1	48.8711
1961.3	46.253
1963.5	49.4189
1965.69	50.4385
1967.89	46.332
1970.08	45.9772
1972.27	50.0949
1974.46	47.5047
1976.66	49.8181
1978.84	44.607
1981.03	44.8572
1983.22	47.9695
1985.41	46.863
1987.59	47.5124
1989.78	41.837
1991.96	47.2881
1994.14	44.4433
1996.32	46.2236
1998.51	41.7196
2000.69	41.9189
2002.86	40.8078
2005.04	46.0347
2007.22	44.3334
2009.39	44.1177
2011.57	41.6901
2013.74	46.5775
2015.91	44.9671
2018.09	40.0804
2020.26	43.9587
2022.43	45.0107
2024.59	40.0308
2026.76	38.1143
2028.93	40.4602
2031.09	38.9402
2033.26	41.8432
2035.42	40.0809
2037.59	39.5393
2039.75	41.4896
2041.91	38.8815
2044.07	42.7168
2046.23	36.6303
2048.38	34.6404
2050.54	38.7523
2052.7	38.5328
2054.85	34.777
2057	35.2842
2059.16	37.4834
2061.31	37.8315
2063.46	36.7616
2065.61	33.542
2067.76	35.5023
2069.91	36.3071
2072.05	35.1063
2074.2	35.9454
2076.34	38.0243
2078.49	35.8456
2080.63	36.3347
2082.77	33.0459
2084.91	35.1446
2087.05	33.0486
2089.19	34.039
2091.33	32.5775
2093.47	34.6303
2095.6	36.1655
2097.74	35.807
2099.87	35.9312
2102.01	34.5408
2104.14	36.2708
2106.27	33.9123
2108.4	31.593
2110.53	34.1128
2112.66	31.3785
2114.79	32.91
2116.91	34.8456
2119.04	35.6629
2121.16	33.7872
2123.29	35.903
2125.41	30.431
2127.53	33.6959
2129.65	30.0558
2131.77	33.4756
2133.89	34.5548
2136.01	31.9698
2138.12	32.7208
2140.24	31.5854
2142.35	33.142
2144.47	31.4447
2146.58	30.436
2148.69	30.7722
2150.8	28.5394
2152.91	30.2722
2155.02	35.1076
2157.13	30.5585
2159.24	28.0017
2161.34	27.658
2163.45	28.9846
2165.55	31.4437
2167.66	31.5548
2169.76	41.7259
2171.86	32.0833
2173.96	29.3105
2176.06	31.6709
2178.16	30.9642
2180.26	30.4433
2182.35	31.6967
2184.45	29.238
2186.54	29.2835
2188.64	30.6299
2190.73	29.8804
2192.82	32.0886
2194.91	28.4385
2197	31.0071
2199.09	28.9543
2201.18	28.1056
2203.27	27.9697
2205.35	30.7461
2207.44	29.6239
2209.52	26.691
2211.61	27.9426
2213.69	30.9543
2215.77	29.4537
2217.85	29.025
2219.93	29.3847
2222.01	26.7323
2224.09	30.0451
2226.16	27.52
2228.24	27.4142
2230.31	28.8283
2232.39	24.7848
2234.46	26.4865
2236.53	25.3286
2238.6	27.0361
2240.67	29.3998
2242.74	27.7986
2244.81	25.8027
2246.88	26.9899
2248.94	25.4372
2251.01	26.3171
2253.07	25.3989
2255.14	26.934
2257.2	26.0301
2259.26	24.9837
2261.32	25.399
2263.38	25.3696
2265.44	23.436
2267.5	24.2229
2269.56	27.5254
2271.61	27.6737
2273.67	25.8307
2275.72	26.0859
2277.78	23.9749
2279.83	25.1423
2281.88	25.0031
2283.93	24.1049
2285.98	27.0933
2288.03	26.4344
2290.08	31.8432
2292.12	27.224
2294.17	28.1118
2296.21	26.0949
2298.26	28.3207
2300.3	26.9558
2302.34	26.6288
2304.38	24.1214
2306.42	23.9582
2308.46	25.7554
2310.5	26.1729
2312.54	23.8994
2314.58	23.6007
2316.61	25.7118
2318.65	23.9405
2320.68	21.7426
2322.71	24.9543
2324.75	21.3031
2326.78	23.415
2328.81	23.5697
2330.84	25.4819
2332.86	24.2815
2334.89	25.4683
2336.92	26.2223
2338.94	24.7872
2340.97	23.1689
2342.99	23.8906
2345.02	22.5012
2347.04	25.4823
2349.06	24.8893
2351.08	24.404
2353.1	25.1206
2355.12	19.4523
2357.13	22.1345
2359.15	21.607
2361.17	22.4066
2363.18	21.1635
2365.19	23.3428
2367.21	23.0379
2369.22	24.7935
2371.23	24.2465
2373.24	24.2541
2375.25	24.2188
2377.26	22.8181
2379.27	24.3908
2381.27	18.5864
2383.28	21.2075
2385.28	24.1616
2387.29	25.6303
2389.29	19.4497
2391.29	21.0964
2393.29	21.9814
2395.29	23.3926
2397.29	20.2886
2399.29	21.2383
2401.29	21.5918
2403.28	23.1563
2405.28	23.4907
2407.27	19.837
2409.27	22.2337
2411.26	22.461
2413.25	19.0669
2415.25	21.6733
2417.24	20.5716
2419.22	24.3877
2421.21	19.3028
2423.2	22.4158
2425.19	18.6505
2427.17	21.5865
2429.16	20.0386
2431.14	22.3652
2433.13	20.336
2435.11	21.1563
2437.09	21.7336
2439.07	21.7002
2441.05	23.2469
2443.03	21.0809
2445.01	23.903
2446.98	26.101
2448.96	26.3426
2450.93	28.2061
2452.91	23.2418
2454.88	22.2458
2456.85	23.2612
2458.83	22.3645
2460.8	21.9846
2462.77	24.9915
2464.74	20.2886
2466.7	22.6113
2468.67	24.3404
2470.64	21.101
2472.6	20.1817
2474.57	20.2089
2476.53	19.4437
2478.49	20.0173
2480.46	19.5918
2482.42	20.5253
2484.38	22.8751
2486.34	20.5668
2488.29	26.4552
2490.25	25.5583
2492.21	27.8315
2494.16	24.7626
2496.12	21.7823
2498.07	24.4872
2500.03	21.9566
2501.98	18.7476
2503.93	23.509
2505.88	25.1175
2507.83	25.5626
2509.78	29.8242
2511.73	36.0592
2513.67	43.8727
2515.62	38.1063
2517.56	32.8853
2519.51	30.4128
2521.45	24.6607
2523.4	22.3391
2525.34	21.2145
2527.28	19.8881
2529.22	20.9189
2531.16	23.1928
2533.1	22.0617
2535.03	22.6365
2536.97	22.9418
2538.91	26.6374
2540.84	27.7461
2542.77	25.0326
2544.71	24.9185
2546.64	21.3441
2548.57	20.0435
2550.5	18.0537
2552.43	18.4756
2554.36	18.3583
2556.29	15.6659
2558.21	17.3569
2560.14	16.8959
2562.07	20.278
2563.99	16.3295
2565.91	15.5226
2567.84	15.2314
2569.76	19.1943
2571.68	19.0095
2573.6	19.7414
2575.52	17.326
2577.44	16.944
2579.36	17.0284
2581.27	17.3541
2583.19	16.6771
2585.1	14.75
2587.02	15.0592
2588.93	18.0234
2590.84	16.7704
2592.75	16.8307
2594.67	15.0053
2596.58	18.6337
2598.48	14.2236
2600.39	19.1817
