105.443	6131.06
108.528	5449.69
111.612	4804.62
114.693	4234.26
117.774	3709.11
120.854	3243.74
123.931	2839.53
127.007	2496.64
130.081	2203.54
133.155	1950.92
136.226	1725.51
139.296	1514.96
142.364	1339.79
145.431	1190.05
148.496	1037.61
151.559	952.905
154.622	836.412
157.682	745.441
160.741	686.739
163.799	613.627
166.855	570.886
169.91	505.711
172.963	458.118
176.014	412.113
179.064	382.136
182.113	355.662
185.16	315.304
188.205	305.982
191.249	287.624
194.291	264.866
197.333	253.124
200.372	245.19
203.409	219.628
206.446	206.404
209.48	197.82
212.514	185.917
215.546	169.427
218.577	161.61
221.605	163.58
224.633	156.501
227.658	154.047
230.682	147.287
233.706	145.52
236.727	138.033
239.747	137.759
242.765	130.582
245.782	125.239
248.797	122.307
251.811	124.95
254.823	116.945
257.834	115.671
260.844	116.059
263.852	115.717
266.858	113.085
269.863	112.484
272.866	110.863
275.868	111.892
278.869	111.956
281.867	114.881
284.865	108.25
287.861	111.899
290.856	101.349
293.848	109.216
296.84	103.073
299.83	111.031
302.819	112.85
305.806	102.569
308.791	110.207
311.775	105.03
314.758	106.36
317.739	107.08
320.719	108.049
323.697	110.044
326.674	108.367
329.649	110.637
332.623	107.631
335.595	107.096
338.566	113.501
341.535	111.37
344.504	102.413
347.47	110.893
350.434	104.256
353.399	113.361
356.36	106.809
359.321	104.826
362.281	101.381
365.238	111.105
368.194	108.481
371.149	110.855
374.102	108.208
377.054	109.211
380.005	112.732
382.954	122.675
385.901	121.652
388.847	130.547
391.792	129.942
394.735	130.199
397.676	131.293
400.617	130.273
403.555	124.025
406.493	116.755
409.429	113.891
412.363	108.507
415.297	104.192
418.228	105.006
421.158	103.84
424.087	101.549
427.014	97.036
429.94	99.6201
432.864	100.5
435.787	96.6098
438.709	94.4523
441.629	89.3302
444.547	90.7549
447.464	92.4409
450.38	89.8263
453.294	89.7567
456.208	89.0178
459.119	88.5543
462.028	79.9938
464.938	86.4474
467.844	81.6719
470.75	91.2833
473.654	79.6493
476.557	77.4948
479.459	80.8111
482.359	84.9023
485.257	82.1348
488.154	82.7912
491.05	82.9774
493.945	78.7317
496.838	77.3469
499.729	87.5637
502.619	80.9
505.508	80.5946
508.395	78.647
511.281	76.1505
514.165	78.6456
517.049	79.2536
519.93	83.3891
522.81	80.136
525.689	74.0391
528.566	78.9987
531.442	77.7188
534.317	82.673
537.19	85.592
540.062	80.1387
542.932	83.0767
545.801	82.3632
548.669	83.5096
551.534	83.7145
554.399	82.1909
557.262	89.6813
560.124	87.326
562.985	92.3238
565.844	91.8005
568.702	93.3304
571.558	103.959
574.413	115.839
577.266	123.559
580.118	134.125
582.969	146.709
585.819	184.703
588.666	245.8
591.513	344.469
594.359	536.567
597.202	774.253
600.045	789.832
602.885	597.693
605.725	398.167
608.564	278.016
611.4	203.419
614.236	165.282
617.07	137.569
619.902	120.858
622.734	118.458
625.564	109.287
628.393	104.292
631.219	102.25
634.045	97.4555
636.87	91.7312
639.693	91.5379
642.515	90.318
645.335	88.6326
648.153	88.3415
650.971	88.1059
653.787	89.3281
656.602	86.1247
659.416	84.8026
662.228	86.4269
665.038	95.0885
667.848	90.3281
670.655	94.6571
673.462	96.0531
676.268	94.4431
679.071	90.0413
681.874	83.7932
684.675	83.4953
687.475	87.1114
690.273	80.5608
693.07	80.3726
695.866	76.4301
698.66	78.8538
701.453	78.2293
704.244	75.9286
707.035	70.4839
709.824	74.9969
712.612	77.846
715.397	75.2615
718.183	74.0786
720.966	78.5094
723.748	73.5002
726.529	72.3289
729.308	72.7716
732.087	74.4609
734.863	75.6493
737.639	73.1504
740.413	73.1836
743.186	73.4131
745.956	72.5868
748.726	70.2628
751.495	73.1897
754.262	74.2469
757.029	76.5983
759.793	75.5378
762.557	73.6897
765.318	75.523
768.079	78.8381
770.839	74.7745
773.597	79.5154
776.353	88.3579
779.109	84.0705
781.862	90.9565
784.615	89.9732
787.366	101.134
790.116	106.654
792.865	121.045
795.612	116.447
798.358	110.265
801.102	100.159
803.846	88.9507
806.588	92.6903
809.329	89.111
812.068	86.5635
814.806	88.5949
817.542	99.5951
820.278	101.938
823.012	105.161
825.744	110.62
828.476	110.629
831.206	111.134
833.935	126.282
836.662	148.319
839.388	159.061
842.113	166.546
844.836	157.637
847.558	126.481
850.279	115.649
852.999	99.7798
855.718	87.6098
858.435	87.7094
861.15	84.8548
863.865	82.4392
866.577	78.3809
869.289	75.8928
871.999	72.7631
874.709	75.2563
877.417	75.44
880.123	76.273
882.828	77.1951
885.531	70.5262
888.234	77.1026
890.936	72.0196
893.635	74.4671
896.334	75.5297
899.031	76.5439
901.728	75.1539
904.422	73.1737
907.116	73.3956
909.808	78.0345
912.499	74.8171
915.188	75.079
917.877	80.7343
920.563	81.6002
923.249	79.9151
925.934	79.4006
928.617	81.6845
931.298	94.3008
933.979	96.3586
936.658	91.2148
939.336	92.3844
942.013	97.6827
944.688	90.9049
947.362	100.131
950.035	103.848
952.706	112.85
955.377	118.858
958.045	140.783
960.714	166.124
963.38	216.895
966.044	298.671
968.709	487.606
971.372	773.287
974.033	1172.75
976.693	1609
979.351	2694.59
982.009	6880.14
984.665	11069.6
987.32	7802.89
989.974	4125.05
992.626	2117.08
995.277	969.527
997.926	553.234
1000.57	353.77
1003.22	234.436
1005.87	178.965
1008.51	143.458
1011.16	128.598
1013.8	124.781
1016.44	114.95
1019.08	111.006
1021.72	110.225
1024.35	102.436
1026.99	102.706
1029.63	94.3155
1032.26	95.8024
1034.89	89.1276
1037.52	90.1554
1040.15	87.0786
1042.78	87.7627
1045.41	86.2668
1048.03	86.7174
1050.66	82.5461
1053.28	82.0341
1055.9	80.9312
1058.52	84.3901
1061.14	80.2928
1063.76	85.3933
1066.38	86.8396
1068.99	84.9424
1071.61	88.5801
1074.22	89.0602
1076.83	88.698
1079.44	86.5831
1082.05	82.5901
1084.66	82.7666
1087.27	84.3841
1089.87	82.7007
1092.48	83.0688
1095.08	77.5367
1097.68	80.9067
1100.29	87.4476
1102.88	76.0279
1105.48	84.9535
1108.08	83.7422
1110.68	76.9938
1113.27	82.5756
1115.86	85.9906
1118.46	89.843
1121.05	86.139
1123.64	90.9854
1126.23	93.3072
1128.81	99.0429
1131.4	102.453
1133.98	113.015
1136.57	119.917
1139.15	123.319
1141.73	125.794
1144.31	134.364
1146.89	146.11
1149.47	154.068
1152.04	160.525
1154.62	187.763
1157.19	221.492
1159.76	275.76
1162.33	367.24
1164.9	480.985
1167.47	591.375
1170.04	655.658
1172.61	607.855
1175.17	491.42
1177.74	379.401
1180.3	293.516
1182.86	229.777
1185.42	192.356
1187.98	160.916
1190.54	148.74
1193.09	131.553
1195.65	120.824
1198.2	109.118
1200.76	110.451
1203.31	102.014
1205.86	103.111
1208.41	100.364
1210.96	96.8069
1213.5	100.179
1216.05	90.4333
1218.59	94.9419
1221.14	84.3595
1223.68	82.2261
1226.22	77.5752
1228.76	83.9249
1231.3	87.0341
1233.84	79.7859
1236.37	84.9168
1238.91	82.0602
1241.44	86.0983
1243.97	81.2219
1246.5	88.3062
1249.03	83.5579
1251.56	90.1265
1254.09	83.0987
1256.62	86.8026
1259.14	81.0193
1261.67	83.2898
1264.19	89.1258
1266.71	88.0146
1269.23	83.838
1271.75	81.9367
1274.27	86.9872
1276.78	93.4632
1279.3	85.5907
1281.81	88.0429
1284.33	93.789
1286.84	88.1755
1289.35	86.7807
1291.86	91.356
1294.37	90.4265
1296.88	88.392
1299.38	91.9134
1301.89	93.9028
1304.39	95.6957
1306.89	87.4425
1309.4	90.3818
1311.9	92.2442
1314.4	100.373
1316.89	95.9963
1319.39	91.4785
1321.89	97.3487
1324.38	102.176
1326.87	98.5162
1329.37	102.678
1331.86	101.239
1334.35	98.265
1336.83	107.538
1339.32	103.538
1341.81	107.935
1344.29	105.107
1346.78	104.521
1349.26	113.436
1351.74	110.516
1354.22	110.814
1356.7	113.184
1359.18	113.629
1361.65	118.968
1364.13	117.463
1366.6	111.897
1369.08	111.296
1371.55	109.586
1374.02	111.579
1376.49	106.703
1378.96	112.765
1381.43	109.58
1383.89	111.394
1386.36	111.837
1388.82	109.597
1391.28	112.106
1393.75	120.33
1396.21	132.107
1398.67	136.809
1401.12	132.296
1403.58	119.879
1406.04	118.261
1408.49	109.777
1410.95	109.617
1413.4	109.693
1415.85	112.784
1418.3	107.319
1420.75	110.672
1423.2	106.909
1425.64	105.546
1428.09	104.463
1430.53	110.251
1432.97	102.891
1435.42	104.324
1437.86	106.507
1440.3	107.291
1442.74	103.19
1445.17	102.639
1447.61	106.061
1450.05	109.917
1452.48	102.571
1454.91	105.809
1457.34	106.866
1459.77	100.129
1462.2	101.451
1464.63	104.378
1467.06	103.37
1469.48	103.903
1471.91	111.644
1474.33	105.065
1476.76	105.387
1479.18	104.649
1481.6	102.254
1484.02	104.822
1486.44	99.3072
1488.85	102.877
1491.27	99.0227
1493.68	102.897
1496.1	102.224
1498.51	95.5215
1500.92	98.3137
1503.33	100.415
1505.74	98.5117
1508.15	95.51
1510.55	101.502
1512.96	100.066
1515.36	100.085
1517.77	101.094
1520.17	102.464
1522.57	96.401
1524.97	101.768
1527.37	102.458
1529.77	100.727
1532.16	95.5721
1534.56	103.134
1536.95	109.285
1539.35	107.05
1541.74	109.555
1544.13	111.414
1546.52	109.378
1548.91	117.819
1551.3	118.413
1553.68	121.627
1556.07	130.546
1558.45	139.33
1560.84	138.335
1563.22	152.893
1565.6	169.271
1567.98	198.33
1570.36	213.932
1572.74	249.821
1575.11	297.131
1577.49	338.636
1579.86	365.525
1582.24	367.098
1584.61	319.27
1586.98	274.467
1589.35	242.458
1591.72	234.349
1594.08	226.871
1596.45	267.948
1598.82	292.694
1601.18	280.164
1603.54	250.793
1605.91	229.003
1608.27	185.854
1610.63	167.74
1612.99	145.011
1615.34	139.202
1617.7	126.809
1620.06	120.425
1622.41	111.66
1624.76	111.427
1627.12	108.475
1629.47	101.817
1631.82	107.431
1634.17	97.6978
1636.51	92.4622
1638.86	92.9535
1641.21	94.5543
1643.55	89.7581
1645.9	87.7229
1648.24	88.3895
1650.58	92.673
1652.92	86.6928
1655.26	85.0885
1657.6	85.4923
1659.93	81.509
1662.27	81.8195
1664.6	83.3155
1666.94	76.5946
1669.27	82.9447
1671.6	83.1897
1673.93	77.4923
1676.26	82.1213
1678.59	78.1423
1680.92	80.3582
1683.24	81.2255
1685.57	82.8289
1687.89	78.5834
1690.22	78.3304
1692.54	82.5035
1694.86	84.4904
1697.18	78.0395
1699.5	77.5923
1701.81	80.7798
1704.13	75.8058
1706.45	73.3363
1708.76	79.9055
1711.07	76.4613
1713.38	65.834
1715.7	71.4665
1718.01	71.8794
1720.31	70.9889
1722.62	72.4383
1724.93	74.918
1727.24	75.7155
1729.54	69.2079
1731.84	64.1992
1734.15	69.8466
1736.45	68.4386
1738.75	71.8487
1741.05	64.0965
1743.35	69.1619
1745.64	70.8959
1747.94	66.7174
1750.23	66.8742
1752.53	63.6802
1754.82	64.9116
1757.11	61.3612
1759.4	64.0521
1761.69	65.2751
1763.98	62.2212
1766.27	63.6696
1768.56	63.4383
1770.84	64.8563
1773.13	63.1225
1775.41	67.709
1777.69	63.9283
1779.97	66.7859
1782.25	63.5595
1784.53	61.8462
1786.81	58.9367
1789.09	61.4599
1791.36	59.5182
1793.64	60.5482
1795.91	61.1402
1798.18	60.8111
1800.46	59.9483
1802.73	57.5669
1805	61.7841
1807.27	60.5854
1809.53	57.3325
1811.8	56.0447
1814.07	58.1642
1816.33	61.7061
1818.59	58.042
1820.86	58.2535
1823.12	60.0881
1825.38	56.219
1827.64	59.3249
1829.89	56.4119
1832.15	62.1348
1834.41	58.7174
1836.66	59.4431
1838.92	55.309
1841.17	52.6723
1843.42	56.9169
1845.67	57.7817
1847.92	53.8173
1850.17	56.3854
1852.42	55.1882
1854.67	59.5901
1856.91	56.8008
1859.16	53.2832
1861.4	56.303
1863.64	55.9284
1865.88	55.6064
1868.12	50.9431
1870.36	55.1391
1872.6	56.752
1874.84	53.4058
1877.08	54.5547
1879.31	54.2261
1881.54	56.3728
1883.78	49.3906
1886.01	51.1539
1888.24	54.0479
1890.47	49.7057
1892.7	53.1734
1894.93	51.6845
1897.16	53.0021
1899.38	54.6637
1901.61	54.8677
1903.83	52.7427
1906.05	51.4173
1908.28	52.6405
1910.5	53.6748
1912.72	50.4119
1914.94	47.7351
1917.16	49.3901
1919.37	51.4526
1921.59	54.6438
1923.8	53.7654
1926.02	53.8991
1928.23	53.6349
1930.44	52.3844
1932.65	52.4218
1934.86	51.0521
1937.07	48.7174
1939.28	46.0395
1941.48	50.6572
1943.69	51.5635
1945.9	49.5378
1948.1	45.159
1950.3	46.9774
1952.5	52.6051
1954.7	50.0186
1956.9	46.4735
1959.1	44.7343
1961.3	46.7059
1963.5	50.8754
1965.69	47.883
1967.89	46.24
1970.08	45.0393
1972.27	46.154
1974.46	48.2419
1976.66	44.4839
1978.84	44.0237
1981.03	43.9739
1983.22	42.6915
1985.41	47.1681
1987.59	44.4773
1989.78	44.4234
1991.96	45.1995
1994.14	42.3579
1996.32	45.979
1998.51	41.1048
2000.69	41.6845
2002.86	43.5265
2005.04	42.523
2007.22	38.6946
2009.39	44.1223
2011.57	42.0428
2013.74	39.115
2015.91	43.9905
2018.09	44.9659
2020.26	40.4382
2022.43	39.4131
2024.59	38.8761
2026.76	40.1216
2028.93	36.5429
2031.09	39.2325
2033.26	41.9696
2035.42	41.0279
2037.59	39.5054
2039.75	39.1713
2041.91	42.1475
2044.07	40.5182
2046.23	39.7393
2048.38	40.9963
2050.54	35.902
2052.7	35.5439
2054.85	36.9077
2057	38.9344
2059.16	36.5752
2061.31	36.1848
2063.46	34.7152
2065.61	34.8952
2067.76	37.327
2069.91	35.1475
2072.05	35.2878
2074.2	35.1787
2076.34	33.8659
2078.49	35.547
2080.63	33.9854
2082.77	32.9774
2084.91	30.3155
2087.05	32.3526
2089.19	33.2701
2091.33	31.538
2093.47	32.5595
2095.6	37.1325
2097.74	33.0364
2099.87	34.0165
2102.01	32.6576
2104.14	35.8299
2106.27	34.5835
2108.4	31.7548
2110.53	30.4953
2112.66	33.7963
2114.79	30.6782
2116.91	32.0646
2119.04	30.3727
2121.16	33.2702
2123.29	35.3694
2125.41	33.1357
2127.53	30.7319
2129.65	34.8287
2131.77	30.1463
2133.89	33.0933
2136.01	27.0652
2138.12	30.1108
2140.24	31.4591
2142.35	31.3043
2144.47	31.5294
2146.58	28.41
2148.69	34.2989
2150.8	29.6781
2152.91	31.3727
2155.02	27.7913
2157.13	29.538
2159.24	30.6166
2161.34	26.4583
2163.45	31.5461
2165.55	30.5546
2167.66	31.8174
2169.76	41.703
2171.86	28.0475
2173.96	29.6897
2176.06	25.0443
2178.16	25.244
2180.26	27.5382
2182.35	32.1143
2184.45	30.5294
2186.54	30.332
2188.64	27.7486
2190.73	27.3271
2192.82	26.2784
2194.91	25.677
2197	29.2275
2199.09	27.6936
2201.18	25.3761
2203.27	29.3753
2205.35	30.125
2207.44	28.0819
2209.52	31.7343
2211.61	31.4443
2213.69	23.1734
2215.77	29.3187
2217.85	28.8345
2219.93	27.9906
2222.01	27.236
2224.09	27.4923
2226.16	25.2099
2228.24	25.5409
2230.31	25.7209
2232.39	25.2285
2234.46	23.2525
2236.53	27.6657
2238.6	24.1757
2240.67	22.242
2242.74	24.7748
2244.81	22.8123
2246.88	23.7433
2248.94	22.5817
2251.01	22.7229
2253.07	25.1356
2255.14	23.8266
2257.2	26.1249
2259.26	27.0967
2261.32	25.9674
2263.38	21.6208
2265.44	25.8299
2267.5	27.3979
2269.56	23.2898
2271.61	25.0395
2273.67	26.271
2275.72	25.061
2277.78	24.2078
2279.83	23.7856
2281.88	25.2701
2283.93	24.7733
2285.98	25.7061
2288.03	27.6773
2290.08	26.4638
2292.12	27.698
2294.17	25.3364
2296.21	25.571
2298.26	25.4052
2300.3	24.7276
2302.34	25.5948
2304.38	19.2502
2306.42	23.788
2308.46	21.9431
2310.5	25.3487
2312.54	23.4016
2314.58	22.3595
2316.61	23.5916
2318.65	19.6158
2320.68	22.7809
2322.71	24.1825
2324.75	19.3989
2326.78	19.5178
2328.81	23.7726
2330.84	22.4785
2332.86	24.2783
2334.89	19.9529
2336.92	22.0878
2338.94	23.9397
2340.97	23.3937
2342.99	21.7726
2345.02	23.7693
2347.04	23.9284
2349.06	22.3726
2351.08	23.1973
2353.1	20.3385
2355.12	22.8462
2357.13	22.708
2359.15	23.0052
2361.17	23.036
2363.18	19.8256
2365.19	25.7884
2367.21	22.4016
2369.22	22.216
2371.23	24.615
2373.24	25.1558
2375.25	18.0933
2377.26	22.5238
2379.27	23.9706
2381.27	25.1554
2383.28	21.9967
2385.28	21.6647
2387.29	22.9202
2389.29	20.173
2391.29	23.6166
2393.29	20.652
2395.29	17.6491
2397.29	21.5618
2399.29	20.7234
2401.29	19.892
2403.28	20.4094
2405.28	19.3579
2407.27	17.6489
2409.27	17.415
2411.26	21.8339
2413.25	19.4608
2415.25	20.5493
2417.24	19.9349
2419.22	18.8627
2421.21	18.1713
2423.2	22.1599
2425.19	19.023
2427.17	21.0197
2429.16	17.7956
2431.14	19.1706
2433.13	20.1796
2435.11	20.469
2437.09	22.0618
2439.07	17.8742
2441.05	21.7733
2443.03	24.0817
2445.01	20.8168
2446.98	20.7567
2448.96	21.5544
2450.93	26.4929
2452.91	26.5998
2454.88	22.8196
2456.85	21.138
2458.83	21.7635
2460.8	24.0521
2462.77	21.4837
2464.74	22.915
2466.7	22.321
2468.67	21.523
2470.64	18.6373
2472.6	19.5983
2474.57	20.4035
2476.53	20.3357
2478.49	18.9797
2480.46	22.7974
2482.42	18.6353
2484.38	21.4858
2486.34	23.2452
2488.29	22.9988
2490.25	21.6605
2492.21	23.9419
2494.16	26.0705
2496.12	23.4201
2498.07	25.5691
2500.03	24.0396
2501.98	19.2905
2503.93	19.237
2505.88	20.3812
2507.83	25.1794
2509.78	25.7807
2511.73	33.5212
2513.67	38.5178
2515.62	36.5382
2517.56	30.5012
2519.51	25.5129
2521.45	19.5984
2523.4	23.3624
2525.34	20.8761
2527.28	17.9316
2529.22	19.2358
2531.16	21.1341
2533.1	21.4321
2535.03	20.2044
2536.97	24.5867
2538.91	23.9224
2540.84	24.6781
2542.77	25.1918
2544.71	19.3624
2546.64	23.4348
2548.57	19.3924
2550.5	16.3314
2552.43	20.3189
2554.36	17.6915
2556.29	16.7285
2558.21	16.1943
2560.14	15.9367
2562.07	18.6863
2563.99	17.9222
2565.91	17.5409
2567.84	18.1182
2569.76	15.2501
2571.68	15.6978
2573.6	12.3729
2575.52	21.3534
2577.44	14.8289
2579.36	17.1048
2581.27	16.2459
2583.19	14.9134
2585.1	14.3784
2587.02	14.2701
2588.93	15.0508
2590.84	14.7344
2592.75	14.8711
2594.67	15.8689
2596.58	16.5511
2598.48	15.1414
2600.39	16.3357
