105.443	6127.09
108.528	5456.23
111.612	4831.5
114.693	4208.71
117.774	3689.7
120.854	3241.28
123.931	2829.14
127.007	2480.16
130.081	2216.78
133.155	1961.27
136.226	1726.75
139.296	1523.77
142.364	1339.16
145.431	1187.44
148.496	1069.21
151.559	942.956
154.622	842.809
157.682	766.014
160.741	672.997
163.799	610.204
166.855	551.452
169.91	495.484
172.963	458.157
176.014	414.131
179.064	385.693
182.113	350.231
185.16	326.3
188.205	308.244
191.249	285.458
194.291	257.617
197.333	248.325
200.372	238.09
203.409	219.803
206.446	202.152
209.48	190.371
212.514	188.756
215.546	180.019
218.577	165.343
221.605	160.983
224.633	155.802
227.658	146.717
230.682	147.903
233.706	145.766
236.727	143.855
239.747	140.782
242.765	133.445
245.782	122.123
248.797	121.957
251.811	118.315
254.823	120.722
257.834	117.857
260.844	111.226
263.852	112.235
266.858	112.197
269.863	109.925
272.866	115.564
275.868	109.047
278.869	109.714
281.867	115.392
284.865	108.112
287.861	114.371
290.856	115.767
293.848	108.456
296.84	111.353
299.83	107.191
302.819	111.009
305.806	109.828
308.791	103.254
311.775	110.009
314.758	103.917
317.739	102.817
320.719	108.454
323.697	105.678
326.674	108.639
329.649	108.135
332.623	109.152
335.595	110.486
338.566	109.45
341.535	107.999
344.504	104.111
347.47	112.79
350.434	107.787
353.399	105.784
356.36	100.173
359.321	103.674
362.281	108.492
365.238	104.686
368.194	107.332
371.149	114.598
374.102	110.423
377.054	112.226
380.005	118.695
382.954	119.956
385.901	122.358
388.847	131.978
391.792	130.346
394.735	128.924
397.676	130.17
400.617	119.736
403.555	121.025
406.493	116.946
409.429	105.924
412.363	111.815
415.297	105.461
418.228	109.599
421.158	100.3
424.087	104.66
427.014	97.7933
429.94	104.135
432.864	97.7254
435.787	102.961
438.709	97.4302
441.629	93.5387
444.547	88.1729
447.464	90.2632
450.38	92.0517
453.294	97.3763
456.208	92.7915
459.119	90.6246
462.028	90.864
464.938	85.1642
467.844	90.0459
470.75	79.2055
473.654	84.7284
476.557	87.3647
479.459	84.762
482.359	84.8621
485.257	81.7284
488.154	85.7658
491.05	87.3223
493.945	82.8467
496.838	84.0256
499.729	85.2892
502.619	82.5062
505.508	81.8165
508.395	80.2882
511.281	83.2301
514.165	85.6446
517.049	79.4885
519.93	80.0659
522.81	77.3681
525.689	77.0039
528.566	83.7699
531.442	78.444
534.317	80.3311
537.19	81.014
540.062	80.1106
542.932	79.0965
545.801	82.7989
548.669	80.5349
551.534	81.2848
554.399	83.7918
557.262	89.2377
560.124	87.4408
562.985	90.9476
565.844	98.1095
568.702	92.9492
571.558	108.617
574.413	111.066
577.266	114.993
580.118	128.971
582.969	155.513
585.819	185.666
588.666	249.116
591.513	347.265
594.359	540.365
597.202	757.497
600.045	783.23
602.885	585.767
605.725	401.443
608.564	270.804
611.4	206.433
614.236	163.858
617.07	136.424
619.902	119.457
622.734	111.473
625.564	107.894
628.393	105.886
631.219	96.3061
634.045	94.4524
636.87	91.517
639.693	92.1353
642.515	91.5034
645.335	93.3282
648.153	92.1863
650.971	88.4971
653.787	91.9314
656.602	91.3446
659.416	91.5436
662.228	89.344
665.038	90.2506
667.848	92.9348
670.655	94.0626
673.462	94.2176
676.268	90.3575
679.071	90.5335
681.874	86.1454
684.675	83.63
687.475	84.3575
690.273	79.2753
693.07	80.4845
695.866	77.6533
698.66	81.6657
701.453	77.8121
704.244	78.4729
707.035	82.0518
709.824	73.1109
712.612	76.4154
715.397	73.3499
718.183	74.1782
720.966	74.4975
723.748	76.3839
726.529	75.1642
729.308	78.0943
732.087	77.2662
734.863	72.4218
737.639	75.788
740.413	78.4656
743.186	80.8342
745.956	77.0151
748.726	73.1714
751.495	75.8896
754.262	77.9462
757.029	76.7336
759.793	77.1642
762.557	72.7755
765.318	85.652
768.079	80.285
770.839	79.8887
773.597	84.2517
776.353	79.9044
779.109	84.5776
781.862	89.9506
784.615	94.9015
787.366	95.0929
790.116	107.691
792.865	118.23
795.612	117.145
798.358	113.28
801.102	101.513
803.846	95.0284
806.588	89.9781
809.329	91.4499
812.068	91.3676
814.806	90.7514
817.542	91.1526
820.278	93.646
823.012	101.924
825.744	103.895
828.476	114.343
831.206	119.012
833.935	130.333
836.662	146.513
839.388	169.078
842.113	163.017
844.836	151.901
847.558	130.401
850.279	118.518
852.999	104.789
855.718	94.4847
858.435	90.1522
861.15	83.664
863.865	80.7929
866.577	82.461
869.289	80.2763
871.999	74.0467
874.709	75.766
877.417	74.3065
880.123	76.9239
882.828	71.4335
885.531	66.9732
888.234	73.2574
890.936	73.8726
893.635	74.1251
896.334	75.3324
899.031	73.7975
901.728	78.924
904.422	73.5479
907.116	74.1917
909.808	76.2089
912.499	78.2808
915.188	76.522
917.877	77.3051
920.563	77.8978
923.249	83.638
925.934	87.2645
928.617	90.2686
931.298	97.4219
933.979	94.9029
936.658	88.9558
939.336	88.3643
942.013	89.6346
944.688	94.7067
947.362	102.82
950.035	101.847
952.706	109.705
955.377	122.098
958.045	142.568
960.714	162.747
963.38	214.163
966.044	307.274
968.709	498.84
971.372	786.275
974.033	1186.68
976.693	1621.66
979.351	2725.08
982.009	6847.63
984.665	11035.2
987.32	7783.46
989.974	4131.61
992.626	2121.48
995.277	980.017
997.926	552.005
1000.57	358.793
1003.22	228.575
1005.87	177.168
1008.51	140.912
1011.16	128.402
1013.8	114.83
1016.44	111.958
1019.08	107.125
1021.72	103.847
1024.35	101.814
1026.99	101.523
1029.63	99.8799
1032.26	91.7746
1034.89	89.141
1037.52	86.8189
1040.15	88.4796
1042.78	84.8178
1045.41	85.4701
1048.03	85.5177
1050.66	83.6976
1053.28	79.242
1055.9	82.9953
1058.52	83.2374
1061.14	80.5907
1063.76	86.7871
1066.38	80.8887
1068.99	88.0573
1071.61	93.4557
1074.22	91.7039
1076.83	87.9615
1079.44	82.5648
1082.05	82.2625
1084.66	80.672
1087.27	79.9885
1089.87	80.7817
1092.48	82.0659
1095.08	78.4003
1097.68	75.2377
1100.29	74.2054
1102.88	78.6418
1105.48	82.659
1108.08	84.9261
1110.68	80.7699
1113.27	83.3459
1115.86	84.9409
1118.46	86.9173
1121.05	93.3413
1123.64	89.3748
1126.23	91.652
1128.81	98.4498
1131.4	100.397
1133.98	109.496
1136.57	117.326
1139.15	123.069
1141.73	131.318
1144.31	130.339
1146.89	143.408
1149.47	146.919
1152.04	158.396
1154.62	191.634
1157.19	231.12
1159.76	278.177
1162.33	366.645
1164.9	478.004
1167.47	585.505
1170.04	646.386
1172.61	604.561
1175.17	491.322
1177.74	382.892
1180.3	290.587
1182.86	230.542
1185.42	194.958
1187.98	160.406
1190.54	147.985
1193.09	127.167
1195.65	115.069
1198.2	109.354
1200.76	107.616
1203.31	99.6015
1205.86	105.18
1208.41	104.38
1210.96	102.682
1213.5	92.4032
1216.05	89.6023
1218.59	89.9399
1221.14	84.3618
1223.68	86.7831
1226.22	86.7103
1228.76	85.9154
1231.3	85.0829
1233.84	80.3114
1236.37	82.698
1238.91	91.9154
1241.44	84.5903
1243.97	83.4162
1246.5	88.3685
1249.03	82.9881
1251.56	83.3643
1254.09	79.7442
1256.62	81.0126
1259.14	83.2217
1261.67	83.584
1264.19	87.5711
1266.71	78.8466
1269.23	80.2275
1271.75	86.255
1274.27	81.3012
1276.78	87.4336
1279.3	88.7298
1281.81	89.5117
1284.33	84.1795
1286.84	88.066
1289.35	92.4659
1291.86	86.6418
1294.37	89.1425
1296.88	94.8081
1299.38	95.4903
1301.89	96.4224
1304.39	93.6443
1306.89	93.3085
1309.4	89.0199
1311.9	93.2794
1314.4	104.02
1316.89	103.977
1319.39	97.9239
1321.89	100.461
1324.38	94.2997
1326.87	101.82
1329.37	102.497
1331.86	98.4109
1334.35	102.412
1336.83	98.5541
1339.32	109.853
1341.81	105.611
1344.29	102.772
1346.78	109.3
1349.26	111.638
1351.74	112.999
1354.22	114.104
1356.7	114.146
1359.18	114.722
1361.65	110.779
1364.13	114.385
1366.6	112.46
1369.08	107.331
1371.55	110.465
1374.02	106.864
1376.49	111.746
1378.96	114.189
1381.43	111.612
1383.89	106.886
1386.36	108.431
1388.82	108.978
1391.28	114.005
1393.75	116.464
1396.21	135.881
1398.67	137.651
1401.12	125.252
1403.58	116.838
1406.04	113.124
1408.49	115.373
1410.95	111.074
1413.4	108.786
1415.85	106.778
1418.3	108.039
1420.75	108.871
1423.2	102.248
1425.64	107.402
1428.09	106.664
1430.53	99.148
1432.97	104.941
1435.42	108.791
1437.86	103.931
1440.3	105.466
1442.74	101.168
1445.17	99.1901
1447.61	104.314
1450.05	107.448
1452.48	103.629
1454.91	105.189
1457.34	105.464
1459.77	102.642
1462.2	105.164
1464.63	102.472
1467.06	106.92
1469.48	112.962
1471.91	105.262
1474.33	105.269
1476.76	107.069
1479.18	105.454
1481.6	103.801
1484.02	105.913
1486.44	100.721
1488.85	97.7496
1491.27	105.761
1493.68	102.701
1496.1	99.9029
1498.51	97.904
1500.92	97.9184
1503.33	95.8062
1505.74	100.017
1508.15	99.2261
1510.55	99.0152
1512.96	102.667
1515.36	100.158
1517.77	95.9055
1520.17	101.274
1522.57	97.4109
1524.97	100.199
1527.37	93.4642
1529.77	98.0689
1532.16	105.835
1534.56	107.671
1536.95	107.264
1539.35	105.062
1541.74	103.675
1544.13	114.046
1546.52	110.779
1548.91	117.903
1551.3	123.387
1553.68	122.575
1556.07	127.45
1558.45	135.454
1560.84	144.3
1563.22	152.101
1565.6	175.539
1567.98	192.19
1570.36	219.284
1572.74	249.817
1575.11	291.677
1577.49	339.86
1579.86	373.737
1582.24	375.18
1584.61	306.452
1586.98	267.505
1589.35	237.009
1591.72	235.965
1594.08	236.368
1596.45	266.776
1598.82	290.063
1601.18	288.356
1603.54	258.809
1605.91	231.85
1608.27	192.094
1610.63	170.866
1612.99	145.376
1615.34	139.989
1617.7	130.894
1620.06	122.513
1622.41	113.714
1624.76	109.997
1627.12	104.362
1629.47	106.305
1631.82	102.777
1634.17	97.738
1636.51	100.046
1638.86	95.1492
1641.21	91.5321
1643.55	86.7596
1645.9	88.223
1648.24	88.8245
1650.58	87.8659
1652.92	83.291
1655.26	80.9714
1657.6	86.0978
1659.93	88.6376
1662.27	84.4238
1664.6	85.6643
1666.94	82.3575
1669.27	80.8942
1671.6	81.2826
1673.93	85.1051
1676.26	78.4384
1678.59	84.3187
1680.92	77.1119
1683.24	85.5648
1685.57	84.2594
1687.89	79.3267
1690.22	80.7817
1692.54	81.1469
1694.86	82.9449
1697.18	79.291
1699.5	79.7669
1701.81	85.6239
1704.13	81.8125
1706.45	78.284
1708.76	80.4123
1711.07	74.4017
1713.38	78.9837
1715.7	73.9239
1718.01	76.8509
1720.31	77.1426
1722.62	72.9258
1724.93	70.4109
1727.24	71.2348
1729.54	76.8308
1731.84	71.2998
1734.15	66.2739
1736.45	71.1367
1738.75	72.078
1741.05	68.9766
1743.35	70.1988
1745.64	71.6865
1747.94	65.2826
1750.23	67.5009
1752.53	68.5543
1754.82	62.8381
1757.11	70.3843
1759.4	70.6239
1761.69	65.0314
1763.98	65.3379
1766.27	65.1887
1768.56	64.2464
1770.84	61.4557
1773.13	66.1002
1775.41	65.7989
1777.69	67.8892
1779.97	66.5496
1782.25	63.2132
1784.53	63.6931
1786.81	63.19
1789.09	63.7975
1791.36	59.7014
1793.64	57.9832
1795.91	59.5898
1798.18	57.8862
1800.46	53.7918
1802.73	61.2103
1805	59.8968
1807.27	59.0849
1809.53	58.7025
1811.8	60.1974
1814.07	60.2156
1816.33	59.4059
1818.59	56.2145
1820.86	56.8332
1823.12	61.8928
1825.38	55.0197
1827.64	57.3267
1829.89	58.2531
1832.15	59.6965
1834.41	56.4758
1836.66	60.8006
1838.92	59.0352
1841.17	55.9419
1843.42	57.6654
1845.67	60.3158
1847.92	58.4385
1850.17	55.242
1852.42	56.8381
1854.67	56.4109
1856.91	54.3734
1859.16	57.4442
1861.4	52.8062
1863.64	53.4095
1865.88	54.1425
1868.12	56.5071
1870.36	55.9348
1872.6	60.2625
1874.84	53.4483
1877.08	51.2171
1879.31	57.559
1881.54	54.1266
1883.78	56.3575
1886.01	56.9615
1888.24	49.9184
1890.47	50.0092
1892.7	57.014
1894.93	54.3459
1897.16	49.9334
1899.38	54.131
1901.61	51.6159
1903.83	52.3643
1906.05	52.6923
1908.28	50.9261
1910.5	54.1737
1912.72	55.1382
1914.94	50.611
1917.16	52.1781
1919.37	53.2528
1921.59	53.6096
1923.8	53.1324
1926.02	54.2732
1928.23	57.1526
1930.44	56.5206
1932.65	52.088
1934.86	50.9202
1937.07	52.4869
1939.28	52.4181
1941.48	51.2753
1943.69	50.195
1945.9	48.8438
1948.1	50.1628
1950.3	48.6803
1952.5	47.5132
1954.7	48.1045
1956.9	46.1176
1959.1	47.3644
1961.3	42.7491
1963.5	49.5692
1965.69	46.5704
1967.89	45.4528
1970.08	50.284
1972.27	46.3685
1974.46	50.475
1976.66	49.2565
1978.84	44.409
1981.03	43.014
1983.22	49.2742
1985.41	44.0847
1987.59	45.8092
1989.78	44.6706
1991.96	45.3647
1994.14	40.5753
1996.32	41.7751
1998.51	46.0531
2000.69	42.6769
2002.86	43.6446
2005.04	40.4595
2007.22	42.8447
2009.39	44.4021
2011.57	39.3169
2013.74	43.8876
2015.91	43.7559
2018.09	44.3531
2020.26	40.1714
2022.43	39.9836
2024.59	42.4196
2026.76	40.4533
2028.93	41.1527
2031.09	37.584
2033.26	38.9665
2035.42	40.4067
2037.59	39.5489
2039.75	39.7018
2041.91	38.2464
2044.07	41.662
2046.23	35.284
2048.38	38.3959
2050.54	38.3698
2052.7	35.9511
2054.85	38.3801
2057	34.9709
2059.16	37.3473
2061.31	38.0468
2063.46	35.5681
2065.61	37.019
2067.76	36.3857
2069.91	36.1217
2072.05	36.6548
2074.2	33.9892
2076.34	33.925
2078.49	37.897
2080.63	34.0622
2082.77	30.0126
2084.91	34.4911
2087.05	36.457
2089.19	33.6095
2091.33	35.7746
2093.47	31.877
2095.6	36.3372
2097.74	36.4056
2099.87	34.3801
2102.01	32.5865
2104.14	33.8458
2106.27	36.7663
2108.4	33.4642
2110.53	34.7904
2112.66	35.7134
2114.79	33.461
2116.91	31.3839
2119.04	33.7441
2121.16	33.0459
2123.29	26.6864
2125.41	31.0564
2127.53	30.3012
2129.65	27.2753
2131.77	28.1901
2133.89	32.9818
2136.01	32.8237
2138.12	32.222
2140.24	32.9977
2142.35	31.7761
2144.47	29.2997
2146.58	31.5692
2148.69	32.0843
2150.8	32.7168
2152.91	30.5681
2155.02	30.5662
2157.13	29.9837
2159.24	32.2659
2161.34	29.6807
2163.45	31.4494
2165.55	32.9769
2167.66	30.1714
2169.76	39.8078
2171.86	31.0603
2173.96	29.3325
2176.06	27.2795
2178.16	28.6962
2180.26	32.3114
2182.35	31.3435
2184.45	30.5387
2186.54	31.756
2188.64	33.5283
2190.73	30.0617
2192.82	28.4642
2194.91	29.0929
2197	31.6822
2199.09	28.8461
2201.18	28.385
2203.27	27.3459
2205.35	26.8165
2207.44	29.279
2209.52	27.1642
2211.61	31.0099
2213.69	27.3706
2215.77	26.9737
2217.85	27.8468
2219.93	24.7904
2222.01	28.4176
2224.09	31.5552
2226.16	27.7067
2228.24	28.672
2230.31	28.4832
2232.39	29.0445
2234.46	26.9015
2236.53	26.3302
2238.6	28.7325
2240.67	28.4378
2242.74	27.6072
2244.81	27.6019
2246.88	27.766
2248.94	26.9348
2251.01	26.9997
2253.07	26.0284
2255.14	27.1353
2257.2	25.2951
2259.26	24.5869
2261.32	24.8883
2263.38	23.2686
2265.44	27.332
2267.5	25.9173
2269.56	26.3647
2271.61	29.9923
2273.67	25.8607
2275.72	25.0863
2277.78	29.3676
2279.83	26.4686
2281.88	24.1164
2283.93	26.644
2285.98	26.0905
2288.03	33.0282
2290.08	31.3792
2292.12	29.8034
2294.17	26.9198
2296.21	25.6022
2298.26	28.0213
2300.3	24.698
2302.34	30.0209
2304.38	28.924
2306.42	24.724
2308.46	25.6443
2310.5	27.2215
2312.54	29.0088
2314.58	23.888
2316.61	21.6793
2318.65	23.7126
2320.68	22.1483
2322.71	21.1309
2324.75	25.2373
2326.78	23.1511
2328.81	26.9198
2330.84	22.8617
2332.86	26.966
2334.89	26.844
2336.92	24.5624
2338.94	24.0622
2340.97	20.6454
2342.99	24.4108
2345.02	26.9577
2347.04	21.8887
2349.06	28.3151
2351.08	24.2362
2353.1	24.3482
2355.12	23.4908
2357.13	20.3992
2359.15	24.999
2361.17	23.2348
2363.18	22.2968
2365.19	25.4686
2367.21	26.258
2369.22	25.6514
2371.23	22.3706
2373.24	24.6239
2375.25	24.2153
2377.26	21.8554
2379.27	24.1964
2381.27	24.4729
2383.28	22.6159
2385.28	22.3843
2387.29	24.8091
2389.29	22.0776
2391.29	21.6066
2393.29	23.9535
2395.29	19.2637
2397.29	22.5013
2399.29	22.6534
2401.29	21.4546
2403.28	20.4214
2405.28	27.2145
2407.27	19.6
2409.27	23.8087
2411.26	22.6548
2413.25	21.1458
2415.25	20.9405
2417.24	23.8346
2419.22	19.7505
2421.21	23.1416
2423.2	22.3632
2425.19	25.2121
2427.17	19.8091
2429.16	18.4421
2431.14	21.1248
2433.13	22.1427
2435.11	22.7294
2437.09	19.9794
2439.07	22.7505
2441.05	27.5609
2443.03	22.6072
2445.01	21.6498
2446.98	26.5192
2448.96	24.8178
2450.93	26.9577
2452.91	24.2521
2454.88	23.6951
2456.85	24.5479
2458.83	23.1621
2460.8	20.5373
2462.77	23.877
2464.74	21.9867
2466.7	20.6706
2468.67	24.1192
2470.64	21.4108
2472.6	20.6888
2474.57	19.8865
2476.53	18.0825
2478.49	21.5326
2480.46	21.3864
2482.42	21.9679
2484.38	18.4845
2486.34	20.4787
2488.29	25.5048
2490.25	22.7288
2492.21	24.6773
2494.16	30.1237
2496.12	26.9232
2498.07	25.5745
2500.03	22.6484
2501.98	21.3531
2503.93	21.7904
2505.88	21.1084
2507.83	25.2994
2509.78	28.9506
2511.73	38.8279
2513.67	37.9395
2515.62	34.6755
2517.56	32.7929
2519.51	29.5062
2521.45	20.9969
2523.4	20.2261
2525.34	23.3478
2527.28	22.4196
2529.22	21.1237
2531.16	20.8178
2533.1	21.3158
2535.03	23.6159
2536.97	19.0775
2538.91	23.3402
2540.84	23.4729
2542.77	26.802
2544.71	20.8294
2546.64	22.4421
2548.57	19.9678
2550.5	21.5924
2552.43	21.0699
2554.36	17.6159
2556.29	19.3864
2558.21	17.6759
2560.14	19.8448
2562.07	19.2686
2563.99	17.3329
2565.91	18.2478
2567.84	17.7288
2569.76	18.7754
2571.68	16.6706
2573.6	19.4276
2575.52	18.347
2577.44	15.727
2579.36	17.5812
2581.27	18.0088
2583.19	17.8062
2585.1	14.8241
2587.02	18.8279
2588.93	18.2903
2590.84	17.5907
2592.75	18.6432
2594.67	15.7904
2596.58	18.6811
2598.48	16.1301
2600.39	17.1886
