105.443	6105.14
108.528	5458.44
111.612	4824.13
114.693	4200.23
117.774	3698.11
120.854	3265.1
123.931	2852.44
127.007	2514.57
130.081	2207.54
133.155	1942
136.226	1737.25
139.296	1516.83
142.364	1349.51
145.431	1196.03
148.496	1062.14
151.559	942.906
154.622	844.636
157.682	767.925
160.741	694.067
163.799	628.828
166.855	567.036
169.91	507.511
172.963	465.602
176.014	421.66
179.064	387.323
182.113	351.168
185.16	314.157
188.205	302.236
191.249	290.153
194.291	260.493
197.333	244.761
200.372	233.271
203.409	222.636
206.446	207.567
209.48	199.317
212.514	189.946
215.546	176.946
218.577	163.429
221.605	169.167
224.633	168.64
227.658	154.137
230.682	146.135
233.706	146.318
236.727	142.478
239.747	133.549
242.765	131.439
245.782	131.987
248.797	126.705
251.811	121.394
254.823	120.525
257.834	119.681
260.844	116.686
263.852	116.747
266.858	113.973
269.863	111.55
272.866	119.636
275.868	114.38
278.869	112.692
281.867	113.571
284.865	106.157
287.861	109.901
290.856	108.326
293.848	110.685
296.84	105.995
299.83	113.404
302.819	105.668
305.806	108.848
308.791	105.629
311.775	100.917
314.758	110.012
317.739	106.93
320.719	107.583
323.697	107.835
326.674	110.903
329.649	113.379
332.623	106.738
335.595	108.567
338.566	112.164
341.535	108.584
344.504	105.955
347.47	106.695
350.434	110.737
353.399	107.839
356.36	107.978
359.321	106.23
362.281	112.105
365.238	109.178
368.194	106.69
371.149	107.458
374.102	111.149
377.054	111.425
380.005	119.08
382.954	121.456
385.901	119.091
388.847	131.187
391.792	129.122
394.735	133.874
397.676	132.085
400.617	129.752
403.555	121.893
406.493	119.948
409.429	117.697
412.363	116.609
415.297	106.848
418.228	102.004
421.158	104.723
424.087	107.127
427.014	100.139
429.94	104.479
432.864	96.2367
435.787	95.7706
438.709	99.6165
441.629	100.77
444.547	98.7564
447.464	89.5839
450.38	90.0558
453.294	90.2367
456.208	87.9694
459.119	88.8583
462.028	89.1821
464.938	88.8697
467.844	84.7741
470.75	85.1773
473.654	83.3282
476.557	85.4094
479.459	82.7317
482.359	82.7472
485.257	83.1718
488.154	83.6962
491.05	82.2929
493.945	80.2884
496.838	85.085
499.729	83.1185
502.619	84.6293
505.508	84.9451
508.395	79.2046
511.281	81.0905
514.165	81.2932
517.049	74.9501
519.93	84.9939
522.81	77.844
525.689	84.5068
528.566	79.4363
531.442	79.8044
534.317	80.6604
537.19	81.8677
540.062	80.2932
542.932	79.9893
545.801	82.4599
548.669	80.5214
551.534	83.6468
554.399	86.7048
557.262	91.2414
560.124	95.5467
562.985	100.844
565.844	99.3926
568.702	99.8116
571.558	103.646
574.413	112.418
577.266	119.377
580.118	126.964
582.969	150.088
585.819	191.506
588.666	238.258
591.513	349.05
594.359	531.539
597.202	759.466
600.045	776.362
602.885	607.76
605.725	407.117
608.564	266.637
611.4	202.979
614.236	161.539
617.07	141.039
619.902	129.602
622.734	113.95
625.564	107.737
628.393	108.187
631.219	96.6694
634.045	101.413
636.87	98.6877
639.693	93.2683
642.515	89.5142
645.335	86.54
648.153	88.0911
650.971	87.9128
653.787	86.7436
656.602	84.0232
659.416	87.96
662.228	90.7852
665.038	92.7373
667.848	90.3379
670.655	91.6879
673.462	90.0135
676.268	89.571
679.071	94.0757
681.874	88.241
684.675	87.8817
687.475	81.7373
690.273	89
693.07	84.5201
695.866	82.9154
698.66	79.3771
701.453	79.0931
704.244	78.3572
707.035	78.8642
709.824	74.04
712.612	74.1296
715.397	71.1255
718.183	79.6447
720.966	76.241
723.748	75.6678
726.529	73.0239
729.308	74.723
732.087	75.011
734.863	74.3584
737.639	71.0801
740.413	77.8627
743.186	74.1814
745.956	70.2517
748.726	74.1381
751.495	74.7262
754.262	75.5812
757.029	77.2782
759.793	81.7373
762.557	79.0508
765.318	78.2115
768.079	81.003
770.839	84.2501
773.597	82.1885
776.353	85.3545
779.109	83.2388
781.862	92.5021
784.615	97.529
787.366	96.8864
790.116	108.556
792.865	115.572
795.612	118.81
798.358	106.965
801.102	93.8487
803.846	94.7374
806.588	86.5393
809.329	88.6887
812.068	89.8293
814.806	94.4563
817.542	93.525
820.278	100.609
823.012	103.228
825.744	111.521
828.476	113.012
831.206	122.779
833.935	131.501
836.662	140.216
839.388	161.132
842.113	164.196
844.836	162.964
847.558	131.28
850.279	122.747
852.999	107.564
855.718	95.1048
858.435	91.8826
861.15	85.8665
863.865	85.6313
866.577	83.3734
869.289	78.2372
871.999	82.3716
874.709	77.1229
877.417	81.0702
880.123	79.0217
882.828	77.7908
885.531	77.6431
888.234	77.2372
890.936	74.1051
893.635	73.5629
896.334	76.662
899.031	73.6784
901.728	74.4629
904.422	75.1816
907.116	76.5452
909.808	79.6905
912.499	77.9215
915.188	80.7027
917.877	79.004
920.563	84.7173
923.249	84.2197
925.934	83.6651
928.617	89.4594
931.298	89.4976
933.979	93.6057
936.658	86.6163
939.336	90.3252
942.013	100.592
944.688	102.501
947.362	100.91
950.035	102.908
952.706	118.69
955.377	125.747
958.045	145.109
960.714	170.458
963.38	224.963
966.044	301.792
968.709	501.191
971.372	795.251
974.033	1194
976.693	1613.41
979.351	2703.92
982.009	6853.46
984.665	11059.7
987.32	7745.65
989.974	4145.3
992.626	2118.03
995.277	977.268
997.926	554.501
1000.57	359.678
1003.22	236.751
1005.87	175.646
1008.51	152.342
1011.16	128.67
1013.8	119.879
1016.44	114.873
1019.08	111.091
1021.72	105.413
1024.35	99.3901
1026.99	103.029
1029.63	101.086
1032.26	94.9937
1034.89	90.2137
1037.52	87.8571
1040.15	83.3478
1042.78	83.914
1045.41	84.0916
1048.03	84.2509
1050.66	81.7526
1053.28	79.7436
1055.9	84.1433
1058.52	88.3452
1061.14	82.7611
1063.76	86.2815
1066.38	87.4381
1068.99	86.3483
1071.61	88.9456
1074.22	90.4606
1076.83	85.1265
1079.44	87.5722
1082.05	84.5834
1084.66	80.57
1087.27	84.5388
1089.87	77.4834
1092.48	79.9172
1095.08	81.6042
1097.68	82.2478
1100.29	81.4587
1102.88	83.2509
1105.48	75.4683
1108.08	80.4705
1110.68	84.2501
1113.27	84.0663
1115.86	82.8722
1118.46	91.1914
1121.05	91.6852
1123.64	91.015
1126.23	89.8826
1128.81	102.036
1131.4	102.283
1133.98	108.529
1136.57	115.236
1139.15	122.949
1141.73	126.59
1144.31	136.323
1146.89	151.563
1149.47	144.897
1152.04	164.515
1154.62	190.667
1157.19	226.177
1159.76	280.691
1162.33	368.979
1164.9	485.481
1167.47	611.945
1170.04	666.883
1172.61	611.918
1175.17	497.637
1177.74	388.369
1180.3	297.255
1182.86	236.248
1185.42	199.307
1187.98	170.47
1190.54	143.458
1193.09	130.678
1195.65	116.545
1198.2	113.384
1200.76	113.844
1203.31	101.046
1205.86	101.357
1208.41	106.081
1210.96	101.911
1213.5	97.6455
1216.05	86.1255
1218.59	90.5802
1221.14	93.7401
1223.68	85.3353
1226.22	84.9489
1228.76	86.3176
1231.3	90.5496
1233.84	88.9587
1236.37	89.825
1238.91	87.3375
1241.44	84.8583
1243.97	85.4825
1246.5	81.0502
1249.03	83.1299
1251.56	83.9694
1254.09	82.105
1256.62	85.0567
1259.14	84.5155
1261.67	83.9595
1264.19	84.2964
1266.71	82.9491
1269.23	83.5603
1271.75	90.5834
1274.27	87.5033
1276.78	85.0278
1279.3	95.1221
1281.81	92.245
1284.33	85.3584
1286.84	89.7918
1289.35	88.2327
1291.86	93.0309
1294.37	85.7376
1296.88	93.2992
1299.38	94.4908
1301.89	92.404
1304.39	91.0944
1306.89	96.1618
1309.4	91.6547
1311.9	96.1572
1314.4	95.2067
1316.89	99.7758
1319.39	96.3039
1321.89	97.6901
1324.38	103.237
1326.87	100.293
1329.37	99.2505
1331.86	99.2784
1334.35	103.63
1336.83	102.867
1339.32	105.067
1341.81	108.13
1344.29	107.47
1346.78	108.334
1349.26	109.901
1351.74	112.216
1354.22	116.278
1356.7	116.237
1359.18	115.617
1361.65	117.994
1364.13	113.922
1366.6	117.466
1369.08	113.181
1371.55	107.844
1374.02	114.244
1376.49	119.196
1378.96	109.491
1381.43	109.103
1383.89	114.585
1386.36	116.928
1388.82	114.496
1391.28	110.506
1393.75	121.828
1396.21	132.612
1398.67	135.001
1401.12	129.142
1403.58	128.061
1406.04	116.116
1408.49	111
1410.95	107.132
1413.4	114.673
1415.85	109.636
1418.3	105.554
1420.75	111.955
1423.2	111.093
1425.64	108.656
1428.09	100.924
1430.53	107.021
1432.97	103.373
1435.42	106.944
1437.86	103.654
1440.3	105.026
1442.74	103.449
1445.17	103.081
1447.61	101.848
1450.05	108.677
1452.48	109.308
1454.91	109.278
1457.34	107.604
1459.77	107.002
1462.2	108.622
1464.63	107.014
1467.06	107.073
1469.48	110.586
1471.91	111.058
1474.33	111.651
1476.76	106.983
1479.18	110.031
1481.6	103.273
1484.02	108.737
1486.44	105.219
1488.85	105.729
1491.27	102.082
1493.68	103.938
1496.1	101.414
1498.51	107.244
1500.92	103.515
1503.33	100.159
1505.74	103.327
1508.15	99.135
1510.55	103.061
1512.96	99.103
1515.36	99.8487
1517.77	95.6923
1520.17	100.362
1522.57	98.8083
1524.97	104.737
1527.37	102.094
1529.77	107.529
1532.16	104.675
1534.56	105.116
1536.95	104.858
1539.35	109.182
1541.74	110.304
1544.13	107.345
1546.52	117.127
1548.91	118.96
1551.3	116.762
1553.68	125.535
1556.07	132.091
1558.45	133.363
1560.84	141.065
1563.22	154.535
1565.6	167.946
1567.98	190.971
1570.36	219.991
1572.74	256.525
1575.11	297.955
1577.49	343.602
1579.86	376.31
1582.24	352.157
1584.61	316.076
1586.98	263.686
1589.35	245.478
1591.72	243.428
1594.08	237.493
1596.45	271.651
1598.82	295.241
1601.18	289.854
1603.54	262.84
1605.91	227.094
1608.27	186.483
1610.63	165.233
1612.99	155.284
1615.34	137.1
1617.7	128.101
1620.06	125.109
1622.41	114.678
1624.76	106.307
1627.12	105.241
1629.47	107.753
1631.82	103.303
1634.17	99.6925
1636.51	94.1228
1638.86	87.6222
1641.21	90.6512
1643.55	90.0279
1645.9	87.0588
1648.24	89.4584
1650.58	90.4974
1652.92	87.2501
1655.26	85.668
1657.6	87.1679
1659.93	85.1669
1662.27	82.9953
1664.6	87.7512
1666.94	81.4832
1669.27	79.8034
1671.6	79.7994
1673.93	83.8732
1676.26	85.4761
1678.59	80.4738
1680.92	75.0369
1683.24	81.9651
1685.57	83.1135
1687.89	81.9168
1690.22	87.5151
1692.54	82.3452
1694.86	81.3153
1697.18	82.1166
1699.5	81.1687
1701.81	82.6037
1704.13	84.792
1706.45	78.0986
1708.76	83.8024
1711.07	79.7932
1713.38	77.8178
1715.7	73.5981
1718.01	74.8428
1720.31	79.0556
1722.62	76.5253
1724.93	70.4677
1727.24	76.3407
1729.54	69.4146
1731.84	67.0754
1734.15	72.2093
1736.45	76.2587
1738.75	71.4657
1741.05	72.2549
1743.35	67.1618
1745.64	69.2509
1747.94	70.3226
1750.23	69.7928
1752.53	68.1925
1754.82	70.2372
1757.11	69.5398
1759.4	65.4951
1761.69	72.4528
1763.98	65.8242
1766.27	66.8237
1768.56	67.4084
1770.84	61.4728
1773.13	68.554
1775.41	66.5044
1777.69	62.0074
1779.97	59.4341
1782.25	63.463
1784.53	62.4137
1786.81	64.8017
1789.09	58.1464
1791.36	62.3134
1793.64	62.2159
1795.91	62.2164
1798.18	61.3084
1800.46	65.3067
1802.73	60.8057
1805	63.4452
1807.27	63.0556
1809.53	58.5051
1811.8	59.7472
1814.07	60.2681
1816.33	63.9985
1818.59	55.4233
1820.86	60.0184
1823.12	58.0123
1825.38	59.7861
1827.64	60.6405
1829.89	61.5662
1832.15	55.1128
1834.41	59.0706
1836.66	59.2929
1838.92	57.9495
1841.17	56.8803
1843.42	53.5056
1845.67	59.5406
1847.92	53.0564
1850.17	56.5052
1852.42	57.0123
1854.67	58.7939
1856.91	62.2163
1859.16	54.8444
1861.4	53.287
1863.64	57.8032
1865.88	58.404
1868.12	53.5767
1870.36	56.3537
1872.6	53.9742
1874.84	57.2339
1877.08	53.9501
1879.31	55.283
1881.54	53.5245
1883.78	55.6828
1886.01	50.6361
1888.24	51.6148
1890.47	54.7424
1892.7	56.9035
1894.93	58.9734
1897.16	53.994
1899.38	52.8331
1901.61	50.9285
1903.83	51.3863
1906.05	51.1914
1908.28	56.7715
1910.5	56.6361
1912.72	50.8653
1914.94	47.9551
1917.16	52.0806
1919.37	52.6651
1921.59	54.6757
1923.8	50.9985
1926.02	54.8038
1928.23	54.1369
1930.44	54.7378
1932.65	56.1241
1934.86	51.5705
1937.07	53.8484
1939.28	52.3344
1941.48	53.6213
1943.69	49.3617
1945.9	48.0464
1948.1	51.1147
1950.3	48.927
1952.5	52.883
1954.7	49.4386
1956.9	46.2539
1959.1	49.625
1961.3	48.0667
1963.5	47.0711
1965.69	44.967
1967.89	45.525
1970.08	49.2704
1972.27	48.4594
1974.46	47.6608
1976.66	46.0845
1978.84	47.3495
1981.03	48.8687
1983.22	46.5155
1985.41	44.9953
1987.59	46.9352
1989.78	44.2834
1991.96	46.196
1994.14	43.139
1996.32	43.8579
1998.51	43.8758
2000.69	44.4903
2002.86	41.65
2005.04	43.1925
2007.22	42.3568
2009.39	44.8083
2011.57	44.1261
2013.74	46.4854
2015.91	43.7472
2018.09	42.6923
2020.26	42.1048
2022.43	40.8345
2024.59	40.0956
2026.76	44.1913
2028.93	41.1527
2031.09	39.5674
2033.26	39.4147
2035.42	41.806
2037.59	42.7471
2039.75	41.188
2041.91	41.4511
2044.07	40.6684
2046.23	39.3072
2048.38	37.3333
2050.54	38.6776
2052.7	39.4518
2054.85	38.3423
2057	36.8237
2059.16	37.8484
2061.31	36.7196
2063.46	32.4632
2065.61	36.81
2067.76	36.9149
2069.91	35.8682
2072.05	31.0122
2074.2	36.8726
2076.34	37.7785
2078.49	34.1405
2080.63	38.7789
2082.77	36.6151
2084.91	34.5111
2087.05	40.3815
2089.19	33.1468
2091.33	34.4683
2093.47	32.8373
2095.6	36.7611
2097.74	34.5
2099.87	34.3277
2102.01	33.348
2104.14	32.6042
2106.27	32.4566
2108.4	29.8036
2110.53	33.9588
2112.66	33.9599
2114.79	34.5221
2116.91	29.5634
2119.04	28.1597
2121.16	35.2818
2123.29	31
2125.41	32.7706
2127.53	33.858
2129.65	33.1273
2131.77	31.826
2133.89	35.9548
2136.01	30.3027
2138.12	30.0742
2140.24	30.0711
2142.35	29.4575
2144.47	33.1667
2146.58	31.2478
2148.69	31.2327
2150.8	29.196
2152.91	30.7717
2155.02	30.9646
2157.13	30.723
2159.24	28.0556
2161.34	30.2258
2163.45	29.8048
2165.55	33
2167.66	32.1064
2169.76	44.2798
2171.86	28.404
2173.96	24.6956
2176.06	29.9739
2178.16	29.6262
2180.26	34.9128
2182.35	31.6111
2184.45	32.1912
2186.54	29.2824
2188.64	30.2164
2190.73	27.9171
2192.82	30.6119
2194.91	31.3375
2197	30.3617
2199.09	30.3452
2201.18	31.5449
2203.27	29.6581
2205.35	29.792
2207.44	27.2478
2209.52	25.8142
2211.61	30.039
2213.69	30.1593
2215.77	25.5677
2217.85	23.661
2219.93	31.767
2222.01	27.9033
2224.09	25.3344
2226.16	27.2933
2228.24	26.0291
2230.31	24.3067
2232.39	26.8829
2234.46	27.7758
2236.53	28.8354
2238.6	26.9039
2240.67	25.8178
2242.74	25.0142
2244.81	29.0592
2246.88	24.3024
2248.94	27.4213
2251.01	26.3792
2253.07	28.538
2255.14	28.2928
2257.2	24.5743
2259.26	28.0246
2261.32	26.8786
2263.38	27.1711
2265.44	27.2885
2267.5	24.4138
2269.56	26.7469
2271.61	26.4511
2273.67	24.4562
2275.72	28.5669
2277.78	27.3741
2279.83	27.3478
2281.88	23.9051
2283.93	24.5563
2285.98	27.9006
2288.03	29.0282
2290.08	29.744
2292.12	26.5846
2294.17	29.6899
2296.21	22.9551
2298.26	28.9907
2300.3	22.9847
2302.34	29.2059
2304.38	23.5839
2306.42	22.9105
2308.46	24.4084
2310.5	25.5705
2312.54	23.2055
2314.58	22.7148
2316.61	24.8697
2318.65	23.7847
2320.68	22.969
2322.71	26.4134
2324.75	25.0327
2326.78	22.1053
2328.81	24.9734
2330.84	21.273
2332.86	24.2412
2334.89	22.7126
2336.92	23.1277
2338.94	23.4252
2340.97	23.2563
2342.99	23.6254
2345.02	25.2011
2347.04	23.5673
2349.06	22.2754
2351.08	25.4433
2353.1	23.6923
2355.12	23.7019
2357.13	21.547
2359.15	24.9171
2361.17	25.7575
2363.18	21.7852
2365.19	25.2747
2367.21	26.8342
2369.22	24.7472
2371.23	24.5037
2373.24	22.1284
2375.25	20.2623
2377.26	21.6447
2379.27	23.4455
2381.27	22.0327
2383.28	23.762
2385.28	23.0711
2387.29	23.6707
2389.29	25.2504
2391.29	23.1707
2393.29	24.1277
2395.29	21.0251
2397.29	23.6356
2399.29	22.1185
2401.29	19.1428
2403.28	22.466
2405.28	19.9937
2407.27	22.1367
2409.27	23.323
2411.26	18.8626
2413.25	21.7627
2415.25	20.2185
2417.24	21.9293
2419.22	20.3589
2421.21	19.5153
2423.2	21.3612
2425.19	19.9583
2427.17	24.2263
2429.16	19.8133
2431.14	18.8237
2433.13	19.3478
2435.11	23.0755
2437.09	22.1719
2439.07	20.4698
2441.05	21.0251
2443.03	22.3393
2445.01	26.075
2446.98	26.3011
2448.96	27.0711
2450.93	25.8444
2452.91	26.7373
2454.88	23.1472
2456.85	22.6722
2458.83	21.6604
2460.8	22.2235
2462.77	23.8104
2464.74	18.7476
2466.7	21.2163
2468.67	24.7847
2470.64	18.0563
2472.6	21.1494
2474.57	19.4382
2476.53	22.2263
2478.49	21.7611
2480.46	20.1574
2482.42	19.5556
2484.38	18.8166
2486.34	22.8734
2488.29	25.9576
2490.25	24.8937
2492.21	25.91
2494.16	24.7741
2496.12	27.5385
2498.07	21.6905
2500.03	22.8623
2501.98	26.7028
2503.93	19.8632
2505.88	22.9
2507.83	26.1679
2509.78	28.5254
2511.73	35.8852
2513.67	38.5254
2515.62	35.4584
2517.56	32.5051
2519.51	26.6608
2521.45	24.3132
2523.4	19.3921
2525.34	21.5047
2527.28	22.3036
2529.22	20.6298
2531.16	21.2376
2533.1	19.8016
2535.03	21.3996
2536.97	23.6475
2538.91	24.046
2540.84	25.0283
2542.77	24.3301
2544.71	18.0705
2546.64	20.2339
2548.57	19.5821
2550.5	17.6012
2552.43	19.3933
2554.36	18.7719
2556.29	20.4701
2558.21	19.036
2560.14	18.722
2562.07	18.3988
2563.99	17.7036
2565.91	20.3926
2567.84	15.8929
2569.76	14.8697
2571.68	17.1865
2573.6	18.7317
2575.52	20.7467
2577.44	18.5012
2579.36	18.3473
2581.27	16.4138
2583.19	17.8683
2585.1	16.1956
2587.02	17.7467
2588.93	15.717
2590.84	15.1247
2592.75	16.717
2594.67	17.0189
2596.58	15.4231
2598.48	13.3896
2600.39	17.9077
