105.443	6165.45
108.528	5485.74
111.612	4857.17
114.693	4266.43
117.774	3684.9
120.854	3272.22
123.931	2898.26
127.007	2524.45
130.081	2233.58
133.155	1951.06
136.226	1713.06
139.296	1526.79
142.364	1354.24
145.431	1188.93
148.496	1051.42
151.559	953.137
154.622	827.979
157.682	760.556
160.741	698.177
163.799	620.966
166.855	564.809
169.91	506.465
172.963	460.863
176.014	413.72
179.064	386.04
182.113	348.672
185.16	326.146
188.205	299.812
191.249	277.411
194.291	256.952
197.333	242.779
200.372	228.272
203.409	212.779
206.446	201.193
209.48	192.583
212.514	183.565
215.546	168.474
218.577	168.866
221.605	157.992
224.633	146.799
227.658	140.173
230.682	141.952
233.706	139.36
236.727	132.974
239.747	133.995
242.765	125.879
245.782	122.012
248.797	121.283
251.811	121.692
254.823	111.181
257.834	115.448
260.844	114.245
263.852	113.008
266.858	108.623
269.863	111.291
272.866	111.362
275.868	109.14
278.869	111.933
281.867	109.861
284.865	101.528
287.861	107.13
290.856	103.473
293.848	102.098
296.84	103.083
299.83	102.021
302.819	109.196
305.806	106.979
308.791	103.902
311.775	99.4892
314.758	101.074
317.739	100.962
320.719	101.71
323.697	104.752
326.674	97.5982
329.649	107.411
332.623	103.923
335.595	107.837
338.566	105.668
341.535	101.852
344.504	97.7973
347.47	102.766
350.434	103.983
353.399	102.316
356.36	95.8665
359.321	96.046
362.281	102.214
365.238	99.425
368.194	99.2962
371.149	106.584
374.102	109.6
377.054	114.656
380.005	109.974
382.954	123.804
385.901	120.174
388.847	125.081
391.792	121.828
394.735	129.768
397.676	124.256
400.617	122.029
403.555	118.03
406.493	113.777
409.429	106.498
412.363	106.533
415.297	98.7225
418.228	100.196
421.158	99.9658
424.087	97.2962
427.014	91.7114
429.94	94.682
432.864	95.4325
435.787	94.9769
438.709	88.6245
441.629	92.2418
444.547	89.074
447.464	91.1351
450.38	87.7603
453.294	87.8383
456.208	84.7097
459.119	83.9937
462.028	82.8191
464.938	85.2977
467.844	82.8753
470.75	79.8105
473.654	74.14
476.557	82.7973
479.459	73.0717
482.359	76.4168
485.257	81.5289
488.154	77.828
491.05	79.4456
493.945	78.7748
496.838	77.842
499.729	78.3698
502.619	78.012
505.508	70.6294
508.395	75.2649
511.281	78.8204
514.165	77.9977
517.049	76.7457
519.93	75.924
522.81	78.7776
525.689	69.9997
528.566	74.6043
531.442	78.809
534.317	76.6636
537.19	78.8431
540.062	79.1011
542.932	75.4453
545.801	78.8899
548.669	79.4859
551.534	81.4325
554.399	82.0415
557.262	90.6087
560.124	82.8441
562.985	87.7972
565.844	92.1853
568.702	96.3575
571.558	98.0562
574.413	108.029
577.266	116.641
580.118	128.316
582.969	151.21
585.819	181.472
588.666	244.376
591.513	346.861
594.359	531.122
597.202	751.256
600.045	776.669
602.885	602.471
605.725	394.841
608.564	260.001
611.4	197.854
614.236	158.368
617.07	128.687
619.902	116.773
622.734	104.67
625.564	102.615
628.393	90.9387
631.219	100.348
634.045	92.1034
636.87	89.7987
639.693	90.4309
642.515	88.0313
645.335	81.5619
648.153	83.8885
650.971	78.9957
653.787	80.1029
656.602	78.5204
659.416	80.9169
662.228	87.2291
665.038	93.3316
667.848	91.3402
670.655	85.3528
673.462	91.5332
676.268	88.884
679.071	76.0837
681.874	80.0207
684.675	82.3962
687.475	82.1886
690.273	78.1232
693.07	78.138
695.866	74.9138
698.66	73.3475
701.453	72.4454
704.244	73.0811
707.035	71.4179
709.824	72.9699
712.612	72.6909
715.397	73.7406
718.183	68.8614
720.966	71.9977
723.748	69.4123
726.529	69.3747
729.308	72.883
732.087	72.3511
734.863	72.8428
737.639	69.1012
740.413	68.9665
743.186	69.3671
745.956	69.1028
748.726	72.4253
751.495	70.4759
754.262	69.3831
757.029	71.243
759.793	75.1636
762.557	74.0447
765.318	73.1962
768.079	75.8862
770.839	80.2432
773.597	83.2817
776.353	82.5194
779.109	82.8554
781.862	85.7421
784.615	91.0426
787.366	99.5834
790.116	100.974
792.865	115.888
795.612	111.871
798.358	107.291
801.102	99.1525
803.846	88.7107
806.588	86.8685
809.329	85.892
812.068	86.9096
814.806	91.4234
817.542	86.0445
820.278	94.2682
823.012	94.3892
825.744	102.956
828.476	105.511
831.206	118.183
833.935	124.447
836.662	140.709
839.388	153.595
842.113	159.448
844.836	159.787
847.558	132.878
850.279	115.348
852.999	102.544
855.718	94.1465
858.435	90.1406
861.15	84.9244
863.865	80.189
866.577	75.8209
869.289	74.9861
871.999	78.065
874.709	73.6325
877.417	71.3218
880.123	67.9582
882.828	73.3228
885.531	69.6427
888.234	68.1782
890.936	70.6876
893.635	71.877
896.334	70.4454
899.031	64.8712
901.728	70.4234
904.422	73.6184
907.116	73.2179
909.808	72.8064
912.499	69.6874
915.188	71.7272
917.877	71.3073
920.563	79.0865
923.249	74.7786
925.934	78.3766
928.617	80.9174
931.298	90.3133
933.979	93.1723
936.658	88.0089
939.336	84.5582
942.013	85.3962
944.688	94.4059
947.362	98.0483
950.035	100.668
952.706	106.859
955.377	116.355
958.045	137.819
960.714	166.576
963.38	211.751
966.044	298.887
968.709	473.334
971.372	793.974
974.033	1178.39
976.693	1627.17
979.351	2691.11
982.009	6820.23
984.665	11142.5
987.32	7864.31
989.974	4182.75
992.626	2156.08
995.277	1007.35
997.926	560.127
1000.57	356.737
1003.22	238.355
1005.87	174.553
1008.51	145.369
1011.16	132.284
1013.8	115.751
1016.44	112.781
1019.08	103.338
1021.72	101.296
1024.35	106.736
1026.99	100.364
1029.63	93.5003
1032.26	88.0319
1034.89	89.5604
1037.52	79.9084
1040.15	81.7786
1042.78	81.6496
1045.41	78.18
1048.03	78.4889
1050.66	78.4183
1053.28	80.112
1055.9	84.3557
1058.52	80.9578
1061.14	83.4205
1063.76	81.6259
1066.38	80.376
1068.99	86.5406
1071.61	89.5755
1074.22	87.1509
1076.83	79.663
1079.44	82.1702
1082.05	83.2992
1084.66	78.6038
1087.27	74.5133
1089.87	80.8901
1092.48	78.7113
1095.08	77.1412
1097.68	71.1887
1100.29	72.8387
1102.88	77.3602
1105.48	77.1571
1108.08	76.8139
1110.68	84.4332
1113.27	80.2576
1115.86	78.8537
1118.46	81.3912
1121.05	77.8337
1123.64	88.7258
1126.23	97.2781
1128.81	94.5729
1131.4	100.449
1133.98	103.791
1136.57	112.895
1139.15	122.651
1141.73	129.041
1144.31	130.853
1146.89	136.391
1149.47	147.143
1152.04	164.682
1154.62	180.535
1157.19	221.424
1159.76	276.13
1162.33	366.617
1164.9	483.666
1167.47	608.56
1170.04	670.897
1172.61	611.677
1175.17	498.432
1177.74	369.771
1180.3	290.369
1182.86	232.085
1185.42	184.576
1187.98	157.897
1190.54	134.897
1193.09	125.399
1195.65	117.491
1198.2	107.125
1200.76	109.492
1203.31	97.4871
1205.86	104.109
1208.41	102.8
1210.96	96.9335
1213.5	96.1991
1216.05	84.1649
1218.59	92.9536
1221.14	82.3331
1223.68	88.8971
1226.22	82.5332
1228.76	82.19
1231.3	73.7584
1233.84	84.3076
1236.37	83.6551
1238.91	80.2304
1241.44	77.1361
1243.97	79.4437
1246.5	83.0483
1249.03	84.7004
1251.56	78.9188
1254.09	82.0451
1256.62	81.0102
1259.14	82.3094
1261.67	84.7365
1264.19	79.3345
1266.71	83.0374
1269.23	82.327
1271.75	78.7018
1274.27	83.2088
1276.78	78.839
1279.3	85.737
1281.81	84.7284
1284.33	83.647
1286.84	86.243
1289.35	85.932
1291.86	89.9588
1294.37	89.7973
1296.88	88.4957
1299.38	90.2593
1301.89	93.7628
1304.39	90.7441
1306.89	93.2013
1309.4	91.2939
1311.9	95.0684
1314.4	92.4391
1316.89	93.1683
1319.39	91.0961
1321.89	95.8431
1324.38	100.338
1326.87	100.945
1329.37	99.5493
1331.86	96.8209
1334.35	101.974
1336.83	104.425
1339.32	105.479
1341.81	107.803
1344.29	100.601
1346.78	112.226
1349.26	103.741
1351.74	108.895
1354.22	107.955
1356.7	110.409
1359.18	113.587
1361.65	111.892
1364.13	114.467
1366.6	113.186
1369.08	108.356
1371.55	110.533
1374.02	112.707
1376.49	111.859
1378.96	107.272
1381.43	105.123
1383.89	104.327
1386.36	113.848
1388.82	113.56
1391.28	107.369
1393.75	113.268
1396.21	124.882
1398.67	128.578
1401.12	124.978
1403.58	121.112
1406.04	108.845
1408.49	107.94
1410.95	107.121
1413.4	108.003
1415.85	104.926
1418.3	100.839
1420.75	101.553
1423.2	103.003
1425.64	106.465
1428.09	102.351
1430.53	101.154
1432.97	100.556
1435.42	107.763
1437.86	107.014
1440.3	99.5295
1442.74	102.894
1445.17	102.602
1447.61	100.545
1450.05	104.502
1452.48	106.368
1454.91	103.084
1457.34	108.314
1459.77	102.862
1462.2	102.156
1464.63	102.376
1467.06	103.693
1469.48	108.354
1471.91	106.772
1474.33	104.364
1476.76	108.375
1479.18	96.8754
1481.6	98.4885
1484.02	100.715
1486.44	105.226
1488.85	100.06
1491.27	94.1962
1493.68	98.001
1496.1	97.2879
1498.51	97.4036
1500.92	100.779
1503.33	97.3543
1505.74	100.098
1508.15	96.4889
1510.55	100.265
1512.96	98.0049
1515.36	97.8028
1517.77	96.1068
1520.17	99.0512
1522.57	94.9628
1524.97	101.408
1527.37	98.8628
1529.77	100.546
1532.16	99.5907
1534.56	100.934
1536.95	100.639
1539.35	109.958
1541.74	106.222
1544.13	107.001
1546.52	105.542
1548.91	113.535
1551.3	113.656
1553.68	118.101
1556.07	124.343
1558.45	129.244
1560.84	143.681
1563.22	151.75
1565.6	164.484
1567.98	186.684
1570.36	222.52
1572.74	251.519
1575.11	301.051
1577.49	351.559
1579.86	375.587
1582.24	354.584
1584.61	313.116
1586.98	273.46
1589.35	234.968
1591.72	227.917
1594.08	236.024
1596.45	264.721
1598.82	290.228
1601.18	295.084
1603.54	252.017
1605.91	227.332
1608.27	188.407
1610.63	162.686
1612.99	145.891
1615.34	132.579
1617.7	127.132
1620.06	123.294
1622.41	114.536
1624.76	104.017
1627.12	101.946
1629.47	101.131
1631.82	98.5308
1634.17	99.7225
1636.51	94.1466
1638.86	92.1594
1641.21	89.6729
1643.55	88.2925
1645.9	89.4182
1648.24	87.71
1650.58	87.3939
1652.92	87.5565
1655.26	87.6653
1657.6	85.1325
1659.93	83.9398
1662.27	80.6874
1664.6	80.5969
1666.94	81.9658
1669.27	77.9706
1671.6	81.238
1673.93	80.4325
1676.26	80.035
1678.59	76.235
1680.92	77.6604
1683.24	73.0901
1685.57	78.4947
1687.89	81.9519
1690.22	80.852
1692.54	78.948
1694.86	76.8189
1697.18	72.5436
1699.5	76.7186
1701.81	77.8806
1704.13	76.4799
1706.45	71.9517
1708.76	80.9578
1711.07	77.1337
1713.38	70.5507
1715.7	72.5038
1718.01	73.9754
1720.31	69.185
1722.62	66.138
1724.93	69.4875
1727.24	71.1445
1729.54	68.0591
1731.84	67.6048
1734.15	66.9481
1736.45	64.5835
1738.75	69.0559
1741.05	71.6168
1743.35	64.4197
1745.64	65.999
1747.94	64.2689
1750.23	60.2432
1752.53	66.9103
1754.82	61.4109
1757.11	68.0956
1759.4	61.0742
1761.69	61.5601
1763.98	62.4747
1766.27	67.0775
1768.56	59.9923
1770.84	59.282
1773.13	61.7412
1775.41	61.3674
1777.69	61.7409
1779.97	56.5986
1782.25	52.8481
1784.53	61.1239
1786.81	59.3304
1789.09	56.2218
1791.36	59.6862
1793.64	57.5756
1795.91	60.6906
1798.18	55.6942
1800.46	59.1179
1802.73	58.1465
1805	59.5564
1807.27	54.9427
1809.53	54.1525
1811.8	57.2045
1814.07	54.495
1816.33	56.8554
1818.59	55.7786
1820.86	54.7446
1823.12	57.5769
1825.38	52.3033
1827.64	57.1565
1829.89	56.0703
1832.15	54.0703
1834.41	53.4135
1836.66	53.9043
1838.92	57.2997
1841.17	54.3426
1843.42	53.4877
1845.67	55.9594
1847.92	53.7658
1850.17	56.8063
1852.42	53.2646
1854.67	51.8899
1856.91	55.3708
1859.16	51.779
1861.4	55.1081
1863.64	52.8899
1865.88	46.6701
1868.12	50.5404
1870.36	50.0174
1872.6	51.001
1874.84	53.6862
1877.08	50.4325
1879.31	49.5533
1881.54	47.8053
1883.78	53.0829
1886.01	51.3764
1888.24	49.2173
1890.47	50.7616
1892.7	51.3549
1894.93	52.828
1897.16	50.7658
1899.38	49.3396
1901.61	50.0577
1903.83	48.3981
1906.05	46.6259
1908.28	47.6404
1910.5	51.0871
1912.72	45.0972
1914.94	45.7729
1917.16	46.5896
1919.37	51.6904
1921.59	49.2432
1923.8	49.2436
1926.02	47.0975
1928.23	52.1848
1930.44	49.6273
1932.65	46.1946
1934.86	44.5204
1937.07	48.8589
1939.28	46.3365
1941.48	49.1975
1943.69	49.7642
1945.9	46.2415
1948.1	46.7867
1950.3	42.2976
1952.5	41.6952
1954.7	45.1753
1956.9	45.0703
1959.1	42.1213
1961.3	45.241
1963.5	47.0624
1965.69	43.1121
1967.89	43.6063
1970.08	44.0046
1972.27	48.5834
1974.46	44.753
1976.66	42.4361
1978.84	46.2253
1981.03	45.225
1983.22	44.5331
1985.41	39.2173
1987.59	39.8628
1989.78	43.2145
1991.96	41.0102
1994.14	42.2375
1996.32	37.2593
1998.51	39.6729
2000.69	39.0082
2002.86	39.3717
2005.04	36.2104
2007.22	38.1556
2009.39	33.5986
2011.57	38.425
2013.74	36.5042
2015.91	34.0658
2018.09	38.0426
2020.26	38.1314
2022.43	38.8376
2024.59	37.6321
2026.76	37.0851
2028.93	34.0837
2031.09	35.085
2033.26	34.7477
2035.42	35.9063
2037.59	32.8554
2039.75	37.5039
2041.91	39.6552
2044.07	32.3945
2046.23	32.7804
2048.38	38.7205
2050.54	34.2925
2052.7	32.1556
2054.85	30.9467
2057	29.6053
2059.16	30.1152
2061.31	32.2067
2063.46	29.0699
2065.61	32.8027
2067.76	30.6273
2069.91	32.046
2072.05	29.0285
2074.2	32.0572
2076.34	30.2885
2078.49	32.6986
2080.63	33.6
2082.77	28.2925
2084.91	29.6184
2087.05	30.4093
2089.19	28.0426
2091.33	29.14
2093.47	32.472
2095.6	28.5497
2097.74	26.2048
2099.87	27.1387
2102.01	30.8406
2104.14	28.3435
2106.27	28.1062
2108.4	30.5597
2110.53	26.6568
2112.66	25.5219
2114.79	28.0276
2116.91	29.7056
2119.04	29.7695
2121.16	26.5779
2123.29	28.5381
2125.41	27.1962
2127.53	29.1029
2129.65	29.829
2131.77	24.9665
2133.89	25.7658
2136.01	25.2747
2138.12	28.134
2140.24	30.0285
2142.35	25.0361
2144.47	24.3619
2146.58	22.5023
2148.69	26.4072
2150.8	26.6054
2152.91	24.6127
2155.02	24.6335
2157.13	24.171
2159.24	26.4723
2161.34	23.8951
2163.45	27.2982
2165.55	25.8707
2167.66	24.7734
2169.76	38.0605
2171.86	24.0922
2173.96	26.489
2176.06	24.1636
2178.16	25.9239
2180.26	24.7786
2182.35	26.5831
2184.45	26.7958
2186.54	27.3109
2188.64	28.6623
2190.73	25.6876
2192.82	19.6127
2194.91	23.9084
2197	21.2159
2199.09	23.7665
2201.18	23.7133
2203.27	25.6028
2205.35	24.2535
2207.44	23.4747
2209.52	27.1525
2211.61	22.2982
2213.69	27.5835
2215.77	25.0811
2217.85	25.3014
2219.93	23.684
2222.01	23.1213
2224.09	21.7409
2226.16	22.9253
2228.24	22.8679
2230.31	23.8192
2232.39	19.6331
2234.46	22.8784
2236.53	23.6862
2238.6	20.8495
2240.67	21.8614
2242.74	21.6821
2244.81	25.2375
2246.88	20.3764
2248.94	21.0739
2251.01	21.7093
2253.07	22.1391
2255.14	21.8176
2257.2	24.7508
2259.26	23.4036
2261.32	20.2087
2263.38	21.7114
2265.44	22.2446
2267.5	23.0081
2269.56	22.8533
2271.61	20.7259
2273.67	21.1305
2275.72	20.7409
2277.78	21.5967
2279.83	22.9497
2281.88	21.285
2283.93	24.0016
2285.98	22.0831
2288.03	23.6687
2290.08	21.8481
2292.12	23.9096
2294.17	18.8875
2296.21	19.7104
2298.26	23.1689
2300.3	19.0776
2302.34	22.0572
2304.38	20.9916
2306.42	20.0285
2308.46	22.6406
2310.5	18.5658
2312.54	21.2216
2314.58	17.5493
2316.61	18.0132
2318.65	22.6114
2320.68	19.7295
2322.71	19.8944
2324.75	19.1242
2326.78	20.409
2328.81	13.6565
2330.84	19.1108
2332.86	19.0684
2334.89	19.6735
2336.92	21.4486
2338.94	20.4213
2340.97	20.046
2342.99	18.025
2345.02	20.3204
2347.04	19.3964
2349.06	18.5765
2351.08	17.0251
2353.1	18.2667
2355.12	21.3575
2357.13	15.378
2359.15	15.8081
2361.17	16.1268
2363.18	18.4367
2365.19	19.4442
2367.21	17.2263
2369.22	17.7436
2371.23	18.1173
2373.24	23.967
2375.25	18.7628
2377.26	21.3109
2379.27	20.1139
2381.27	18.4325
2383.28	19.4235
2385.28	17.3829
2387.29	20.1998
2389.29	15.2961
2391.29	17.3931
2393.29	16.9937
2395.29	16.6988
2397.29	16.4795
2399.29	16.2215
2401.29	17.5023
2403.28	18.8192
2405.28	14.3031
2407.27	16.327
2409.27	14.9131
2411.26	17.2432
2413.25	15.9355
2415.25	14.8695
2417.24	17.9093
2419.22	15.3831
2421.21	16.5204
2423.2	18.0078
2425.19	19.5379
2427.17	17.196
2429.16	15.0391
2431.14	16.4858
2433.13	15.5233
2435.11	18.188
2437.09	16.2906
2439.07	15.6676
2441.05	16.3745
2443.03	14.9355
2445.01	18.1062
2446.98	19.6748
2448.96	18.7133
2450.93	21.362
2452.91	20.4859
2454.88	20.2255
2456.85	18.0167
2458.83	17.0242
2460.8	19.7356
2462.77	19.14
2464.74	16.7945
2466.7	14.8461
2468.67	19.2048
2470.64	15.3395
2472.6	15.593
2474.57	17.2725
2476.53	15.5684
2478.49	14.4747
2480.46	13.2218
2482.42	16.5781
2484.38	16.9361
2486.34	14.6443
2488.29	20.3962
2490.25	22.0303
2492.21	22.1426
2494.16	21.1414
2496.12	16.6618
2498.07	18.7806
2500.03	16.4183
2501.98	17.7992
2503.93	14.5584
2505.88	16.3382
2507.83	19.5604
2509.78	22.3962
2511.73	29.3698
2513.67	30.6547
2515.62	26.0496
2517.56	27.2854
2519.51	21.2846
2521.45	16.38
2523.4	15.1649
2525.34	16.3018
2527.28	15.4486
2529.22	15.2448
2531.16	15.7819
2533.1	16.0174
2535.03	19.6022
2536.97	15.327
2538.91	17.1412
2540.84	20.8228
2542.77	20.8951
2544.71	16.788
2546.64	17.2942
2548.57	18.9775
2550.5	13.883
2552.43	13.1253
2554.36	14.4036
2556.29	14.085
2558.21	11.4112
2560.14	13.9244
2562.07	14.0903
2563.99	13.7017
2565.91	11.4932
2567.84	12.2418
2569.76	13.5742
2571.68	10.2682
2573.6	13.6969
2575.52	11.7967
2577.44	11.7973
2579.36	10.4905
2581.27	10.5637
2583.19	13.0384
2585.1	15.0437
2587.02	11.7906
2588.93	11.8518
2590.84	11.1009
2592.75	11.614
2594.67	11.1926
2596.58	12.3559
2598.48	9.41092
2600.39	9.98503
