105.443	6122.2
108.528	5452.97
111.612	4815.37
114.693	4226.31
117.774	3711.84
120.854	3260.04
123.931	2853.44
127.007	2487.78
130.081	2194.24
133.155	1954.05
136.226	1727.37
139.296	1508.86
142.364	1344.64
145.431	1178.95
148.496	1050.83
151.559	951.155
154.622	825.869
157.682	763.94
160.741	680.171
163.799	618.343
166.855	569.665
169.91	514.911
172.963	456.174
176.014	425.736
179.064	381.54
182.113	347.114
185.16	328.355
188.205	289.301
191.249	285.92
194.291	261.246
197.333	245.354
200.372	230.942
203.409	222.487
206.446	200.365
209.48	192.642
212.514	177.284
215.546	177.871
218.577	171.474
221.605	155.029
224.633	153.403
227.658	156.882
230.682	137.498
233.706	146.423
236.727	137.551
239.747	122.845
242.765	123.656
245.782	124.077
248.797	127.602
251.811	116.745
254.823	114.494
257.834	112.841
260.844	115.634
263.852	113.93
266.858	112.774
269.863	109.236
272.866	108.824
275.868	108.609
278.869	107.229
281.867	106.449
284.865	111.296
287.861	108.031
290.856	109.331
293.848	107.707
296.84	109.127
299.83	108.917
302.819	108.942
305.806	99.571
308.791	104.696
311.775	106.275
314.758	104.062
317.739	104.458
320.719	103.692
323.697	108.053
326.674	103.913
329.649	105.765
332.623	105.22
335.595	101.791
338.566	104.934
341.535	106.473
344.504	106.414
347.47	103.354
350.434	106.556
353.399	108.178
356.36	106.239
359.321	102.294
362.281	106.255
365.238	99.3959
368.194	105.369
371.149	107.255
374.102	103.778
377.054	114.101
380.005	113.031
382.954	122.505
385.901	125.605
388.847	124.753
391.792	127.425
394.735	130.898
397.676	127.802
400.617	127.585
403.555	121.527
406.493	115.427
409.429	109.155
412.363	104.063
415.297	105.082
418.228	106.204
421.158	100.252
424.087	99.0645
427.014	95.6603
429.94	92.5425
432.864	95.9786
435.787	94.8201
438.709	94.9315
441.629	95.4918
444.547	95.6581
447.464	88.9243
450.38	94.0006
453.294	87.4738
456.208	84.2779
459.119	86.4742
462.028	80.9457
464.938	84.4174
467.844	85.4867
470.75	82.6112
473.654	80.5433
476.557	80.3799
479.459	80.7585
482.359	82.8239
485.257	82.9626
488.154	77.5818
491.05	77.6563
493.945	81.8895
496.838	83.4226
499.729	81.1623
502.619	79.7424
505.508	75.7601
508.395	77.5425
511.281	75.5909
514.165	77.7517
517.049	74.3851
519.93	80.0582
522.81	78.7694
525.689	77.1696
528.566	78.7195
531.442	80.3537
534.317	74.8895
537.19	79.2537
540.062	75.1361
542.932	79.4486
545.801	76.3975
548.669	82.7049
551.534	82.8583
554.399	88.2488
557.262	84.4959
560.124	90.9246
562.985	86.8759
565.844	92.298
568.702	99.7144
571.558	99.1696
574.413	103.922
577.266	117.242
580.118	122.824
582.969	142.003
585.819	183.214
588.666	235.931
591.513	346.375
594.359	530.13
597.202	765.143
600.045	778.366
602.885	591.736
605.725	401.563
608.564	267.474
611.4	192.831
614.236	153.667
617.07	136.607
619.902	121.18
622.734	111.609
625.564	105.736
628.393	101.936
631.219	94.8251
634.045	94.6959
636.87	86.7088
639.693	87.3735
642.515	85.4801
645.335	81.0444
648.153	86.2535
650.971	83.1025
653.787	87.0981
656.602	86.4673
659.416	87.211
662.228	87.525
665.038	89.4894
667.848	89.6648
670.655	90.6995
673.462	86.2884
676.268	82.5796
679.071	82.4973
681.874	82.5977
684.675	82.3403
687.475	78.893
690.273	79.4467
693.07	76.4761
695.866	77.5026
698.66	72.7469
701.453	75.9551
704.244	72.1689
707.035	70.7132
709.824	73.4553
712.612	69.9711
715.397	70.2092
718.183	70.9691
720.966	71.0266
723.748	69.0041
726.529	72.4736
729.308	69.5246
732.087	72.5422
734.863	74.496
737.639	73.5851
740.413	69.2314
743.186	70.8308
745.956	73.3045
748.726	75.4561
751.495	72.6962
754.262	74.292
757.029	71.8075
759.793	73.9709
762.557	76.4202
765.318	73.5689
768.079	77.1408
770.839	78.7982
773.597	78.369
776.353	75.6977
779.109	82.2116
781.862	81.64
784.615	89.0313
787.366	98.4852
790.116	108.445
792.865	109.858
795.612	115.287
798.358	106.169
801.102	95.9243
803.846	92.1564
806.588	88.6332
809.329	86.3138
812.068	92.7847
814.806	84.4069
817.542	91.9092
820.278	92.2695
823.012	101.858
825.744	103.397
828.476	111.939
831.206	117.707
833.935	132.043
836.662	140.114
839.388	155.576
842.113	167.593
844.836	152.347
847.558	135.153
850.279	116.069
852.999	102.857
855.718	97.5106
858.435	85.1751
861.15	83.0585
863.865	78.1916
866.577	80.3915
869.289	75.8408
871.999	77.2516
874.709	71.62
877.417	72.9934
880.123	71.5757
882.828	72.2807
885.531	73.922
888.234	71.1335
890.936	71.7671
893.635	74.0442
896.334	70.5086
899.031	69.9155
901.728	67.9842
904.422	72.3195
907.116	73.6199
909.808	71.0802
912.499	73.407
915.188	75.234
917.877	75.2517
920.563	79.5398
923.249	80.7267
925.934	80.8055
928.617	87.8783
931.298	94.2612
933.979	93.5162
936.658	88.2267
939.336	89.785
942.013	88.658
944.688	92.1756
947.362	93.5229
950.035	103.765
952.706	106.379
955.377	113.782
958.045	135.398
960.714	170.687
963.38	216.92
966.044	306.071
968.709	474.682
971.372	771.814
974.033	1159.64
976.693	1629
979.351	2695.89
982.009	6815.18
984.665	11070.9
987.32	7819.27
989.974	4157.65
992.626	2108.09
995.277	985.041
997.926	565.609
1000.57	349.952
1003.22	224.858
1005.87	169.962
1008.51	144.315
1011.16	125.591
1013.8	117.252
1016.44	112.18
1019.08	106.11
1021.72	102.838
1024.35	101.831
1026.99	96.7401
1029.63	92.2376
1032.26	92.5142
1034.89	89.9183
1037.52	87.252
1040.15	81.2739
1042.78	84.5648
1045.41	81.6332
1048.03	84.2867
1050.66	82.0138
1053.28	79.9026
1055.9	79.8135
1058.52	81.8044
1061.14	80.0749
1063.76	81.5086
1066.38	86.312
1068.99	83.5628
1071.61	88.5977
1074.22	86.7469
1076.83	79.0669
1079.44	82.2156
1082.05	82.8334
1084.66	82.1199
1087.27	79.6624
1089.87	80.6696
1092.48	80.5692
1095.08	78.2844
1097.68	77.7536
1100.29	78.1644
1102.88	74.3644
1105.48	79.0461
1108.08	76.709
1110.68	81.6493
1113.27	76.9271
1115.86	90.9438
1118.46	83.8148
1121.05	84.8475
1123.64	84.7915
1126.23	87.618
1128.81	94.4198
1131.4	98.0916
1133.98	112.242
1136.57	116.824
1139.15	121.07
1141.73	121.256
1144.31	133.306
1146.89	132.82
1149.47	144.38
1152.04	160.133
1154.62	184.48
1157.19	218.08
1159.76	282.093
1162.33	355.436
1164.9	473.048
1167.47	600.355
1170.04	644.899
1172.61	599.302
1175.17	490.282
1177.74	384.436
1180.3	288.848
1182.86	224.48
1185.42	188.985
1187.98	160.342
1190.54	140.616
1193.09	127.498
1195.65	124.496
1198.2	111.413
1200.76	106.131
1203.31	99.1957
1205.86	100.873
1208.41	103.09
1210.96	101.432
1213.5	92.3758
1216.05	94.7942
1218.59	85.3631
1221.14	85.6888
1223.68	87.4031
1226.22	81.1735
1228.76	81.19
1231.3	82.9803
1233.84	86.823
1236.37	80.127
1238.91	79.2959
1241.44	83.547
1243.97	84.536
1246.5	77.471
1249.03	78.5692
1251.56	77.6739
1254.09	79.491
1256.62	85.9898
1259.14	83.9206
1261.67	73.6291
1264.19	82.1756
1266.71	84.7469
1269.23	80.4962
1271.75	77.2846
1274.27	85.6453
1276.78	82.3672
1279.3	85.5938
1281.81	79.3915
1284.33	83.6648
1286.84	83.1939
1289.35	89.0165
1291.86	86.3211
1294.37	88.2488
1296.88	90.3775
1299.38	89.2004
1301.89	97.5705
1304.39	95.0964
1306.89	91.5692
1309.4	92.5851
1311.9	92.2807
1314.4	99.2043
1316.89	97.9757
1319.39	96.912
1321.89	92.5997
1324.38	87.5246
1326.87	95.0229
1329.37	99.2688
1331.86	98.7735
1334.35	101.926
1336.83	103.018
1339.32	104.936
1341.81	104.256
1344.29	101.141
1346.78	105.834
1349.26	107.064
1351.74	108.38
1354.22	108.694
1356.7	111.592
1359.18	109.907
1361.65	109.709
1364.13	110.836
1366.6	108.209
1369.08	106.776
1371.55	105.937
1374.02	104.191
1376.49	117.218
1378.96	103.392
1381.43	105.147
1383.89	106.12
1386.36	106.839
1388.82	112.93
1391.28	112.128
1393.75	118.126
1396.21	123.334
1398.67	132.891
1401.12	127.284
1403.58	122.038
1406.04	117.604
1408.49	106.478
1410.95	101.551
1413.4	108.379
1415.85	103.389
1418.3	102.19
1420.75	106.168
1423.2	101.297
1425.64	100.365
1428.09	101.458
1430.53	106.252
1432.97	103.708
1435.42	102.654
1437.86	104.26
1440.3	102.147
1442.74	102.546
1445.17	101.036
1447.61	94.4869
1450.05	102.747
1452.48	99.1629
1454.91	103.501
1457.34	104.489
1459.77	105.318
1462.2	102.163
1464.63	101.911
1467.06	102.131
1469.48	102.212
1471.91	105.816
1474.33	108.658
1476.76	102.386
1479.18	103.507
1481.6	104.439
1484.02	101.5
1486.44	97.8342
1488.85	98.7364
1491.27	100.574
1493.68	100.398
1496.1	97.2579
1498.51	97.9354
1500.92	97.5291
1503.33	98.6961
1505.74	93.1248
1508.15	89.0686
1510.55	93.4973
1512.96	94.8135
1515.36	100.662
1517.77	96.8737
1520.17	99.2884
1522.57	100.607
1524.97	96.9717
1527.37	97.2137
1529.77	100.173
1532.16	97.4645
1534.56	99.911
1536.95	97.0116
1539.35	105.778
1541.74	103.167
1544.13	108.513
1546.52	103.962
1548.91	112.085
1551.3	118.892
1553.68	119.729
1556.07	123.528
1558.45	126.791
1560.84	141.172
1563.22	152.281
1565.6	171.413
1567.98	191.269
1570.36	217.411
1572.74	248.232
1575.11	297.348
1577.49	345.967
1579.86	372.225
1582.24	348.053
1584.61	313.778
1586.98	263.858
1589.35	238.4
1591.72	222.848
1594.08	234.975
1596.45	265.054
1598.82	288.074
1601.18	282.074
1603.54	257.186
1605.91	223.909
1608.27	186.729
1610.63	165.627
1612.99	145.912
1615.34	129.725
1617.7	124.626
1620.06	118.171
1622.41	117.178
1624.76	114.912
1627.12	102.918
1629.47	102.35
1631.82	97.6668
1634.17	91.8308
1636.51	101.256
1638.86	89.015
1641.21	90.3754
1643.55	83.5705
1645.9	85.3203
1648.24	86.9025
1650.58	86.4814
1652.92	85.2067
1655.26	81.4906
1657.6	85.3959
1659.93	81.7291
1662.27	82.6536
1664.6	80.3203
1666.94	78.7472
1669.27	74.9354
1671.6	76.0001
1673.93	81.4019
1676.26	77.1553
1678.59	76.9606
1680.92	73.9958
1683.24	79.9186
1685.57	77.6493
1687.89	78.4361
1690.22	80.6424
1692.54	81.6084
1694.86	73.1628
1697.18	77.6241
1699.5	77.2737
1701.81	75.1513
1704.13	74.8359
1706.45	73.8251
1708.76	76.8895
1711.07	71.6929
1713.38	69.8447
1715.7	71.5941
1718.01	69.7384
1720.31	72.2245
1722.62	73.3247
1724.93	69.6453
1727.24	70.5289
1729.54	70.0133
1731.84	65.0515
1734.15	71.9345
1736.45	71.6197
1738.75	68.4738
1741.05	68.6263
1743.35	66.3574
1745.64	63.6361
1747.94	69.4693
1750.23	67.8184
1752.53	64.5401
1754.82	67.1049
1757.11	70.4094
1759.4	63.9606
1761.69	62.6908
1763.98	62.3754
1766.27	63.4019
1768.56	62.4489
1770.84	59.9199
1773.13	57.7928
1775.41	62.702
1777.69	57.0136
1779.97	61.9517
1782.25	59.6421
1784.53	57.1519
1786.81	61.6137
1789.09	57.5705
1791.36	59.8847
1793.64	57.915
1795.91	57.5578
1798.18	57.7999
1800.46	58.9678
1802.73	55.4133
1805	64.2444
1807.27	58.436
1809.53	58.0139
1811.8	55.0404
1814.07	51.0382
1816.33	57.9253
1818.59	58.3337
1820.86	61.3337
1823.12	54.2027
1825.38	56.0473
1827.64	51.5562
1829.89	57.7984
1832.15	55.0469
1834.41	57.2759
1836.66	53.6964
1838.92	54.6962
1841.17	53.6827
1843.42	56.1069
1845.67	53.8803
1847.92	55.9403
1850.17	52.0518
1852.42	59.6357
1854.67	52.5068
1856.91	53.0537
1859.16	58.7024
1861.4	51.6453
1863.64	51.8116
1865.88	52.8653
1868.12	52.8495
1870.36	54.491
1872.6	47.8515
1874.84	52.8475
1877.08	54.7671
1879.31	53.9466
1881.54	51.7451
1883.78	52.347
1886.01	51.6273
1888.24	52.4467
1890.47	51.9536
1892.7	46.5086
1894.93	51.1794
1897.16	50.9544
1899.38	47.587
1901.61	54.061
1903.83	49.6112
1906.05	47.6671
1908.28	52.8204
1910.5	43.2643
1912.72	44.6668
1914.94	46.3291
1917.16	45.6017
1919.37	50.9311
1921.59	50.9596
1923.8	50.9786
1926.02	53.3308
1928.23	48.9293
1930.44	53.8979
1932.65	49.6933
1934.86	47.1408
1937.07	47.3845
1939.28	50.0557
1941.48	47.1828
1943.69	51.0936
1945.9	47.1828
1948.1	49.5247
1950.3	43.1913
1952.5	44.1227
1954.7	44.9401
1956.9	46.6073
1959.1	46.6712
1961.3	40.9243
1963.5	44.7344
1965.69	41.8327
1967.89	46.2252
1970.08	42.2779
1972.27	47.587
1974.46	43.2336
1976.66	44.9183
1978.84	43.7308
1981.03	40.6687
1983.22	43.0732
1985.41	40.9354
1987.59	39.3024
1989.78	43.8823
1991.96	39.3534
1994.14	45.8802
1996.32	39.1737
1998.51	40.5246
2000.69	41.8135
2002.86	38.1846
2005.04	40.9331
2007.22	38.7252
2009.39	40.3449
2011.57	42.3758
2013.74	38.9826
2015.91	41.7662
2018.09	41.0689
2020.26	35.5181
2022.43	34.2779
2024.59	33.9474
2026.76	36.145
2028.93	39.5009
2031.09	38.0046
2033.26	39.5117
2035.42	36.9
2037.59	39.8487
2039.75	37.9852
2041.91	36.1733
2044.07	33.9489
2046.23	32.5275
2048.38	31.9664
2050.54	32.1465
2052.7	34.1623
2054.85	33.8694
2057	34.9151
2059.16	31.3115
2061.31	30.8847
2063.46	32.62
2065.61	33.491
2067.76	30.0456
2069.91	32.9093
2072.05	31.3263
2074.2	31.6179
2076.34	30.3735
2078.49	35.0981
2080.63	33.0133
2082.77	32.0336
2084.91	36.2408
2087.05	31.8295
2089.19	30.3423
2091.33	31.3203
2093.47	29.8556
2095.6	29.1913
2097.74	28.1577
2099.87	29.3806
2102.01	32.1265
2104.14	30.5705
2106.27	30.4871
2108.4	31.536
2110.53	34.2533
2112.66	28.6617
2114.79	29.312
2116.91	28.8202
2119.04	30.2959
2121.16	32.0202
2123.29	25.1114
2125.41	30.0221
2127.53	27.2916
2129.65	26.8914
2131.77	31.2296
2133.89	32.7068
2136.01	29.0308
2138.12	26.5306
2140.24	29.4465
2142.35	25.4135
2144.47	28.6021
2146.58	27.3406
2148.69	25.5181
2150.8	26.8696
2152.91	27.6449
2155.02	26.5398
2157.13	26.598
2159.24	30.0489
2161.34	25.8931
2163.45	26.6177
2165.55	27.5335
2167.66	30.5913
2169.76	39.4957
2171.86	22.2695
2173.96	24.7252
2176.06	25.5557
2178.16	28.5977
2180.26	26.8983
2182.35	28.2376
2184.45	26.4759
2186.54	29.4102
2188.64	28.4226
2190.73	25.9692
2192.82	29.1533
2194.91	26.3407
2197	27.2734
2199.09	28.4247
2201.18	26.7798
2203.27	25.709
2205.35	25.7819
2207.44	26.0295
2209.52	24.8306
2211.61	30.6687
2213.69	25.8132
2215.77	25.3708
2217.85	23.1515
2219.93	23.9417
2222.01	28.5741
2224.09	22.6624
2226.16	23.4961
2228.24	25.0136
2230.31	26.4806
2232.39	22.114
2234.46	22.9673
2236.53	22.4934
2238.6	23.8531
2240.67	22.6471
2242.74	22.7875
2244.81	22.2666
2246.88	21.1245
2248.94	21.2358
2251.01	23.8027
2253.07	24.6759
2255.14	21.9091
2257.2	24.3907
2259.26	24.4322
2261.32	23.8204
2263.38	22.0442
2265.44	20.8562
2267.5	20.5689
2269.56	19.3845
2271.61	20.8732
2273.67	20.3918
2275.72	21.1625
2277.78	21.7932
2279.83	24.18
2281.88	21.8934
2283.93	22.9735
2285.98	26.3599
2288.03	23.0424
2290.08	25.8562
2292.12	23.4692
2294.17	22.8759
2296.21	21.7031
2298.26	19.1515
2300.3	21.383
2302.34	22.9515
2304.38	22.445
2306.42	21.7049
2308.46	19.858
2310.5	22.474
2312.54	21.1332
2314.58	18.8148
2316.61	21.6929
2318.65	19.8451
2320.68	21.3758
2322.71	19.8962
2324.75	19.434
2326.78	19.9596
2328.81	19.4446
2330.84	19.7542
2332.86	16.6624
2334.89	23.0886
2336.92	19.5693
2338.94	20.1848
2340.97	19.614
2342.99	19.8821
2345.02	21.7819
2347.04	19.6979
2349.06	17.3535
2351.08	22.1476
2353.1	20.1406
2355.12	19.3783
2357.13	16.9026
2359.15	18.6225
2361.17	20.3027
2363.18	18.347
2365.19	18.68
2367.21	19.7982
2369.22	20.2499
2371.23	18.7376
2373.24	19.7603
2375.25	17.0846
2377.26	16.9627
2379.27	20.4138
2381.27	19.0802
2383.28	18.0909
2385.28	20.0497
2387.29	21.458
2389.29	19.5909
2391.29	18.5705
2393.29	14.6558
2395.29	16.4423
2397.29	18.9709
2399.29	17.9359
2401.29	18.0379
2403.28	18.7735
2405.28	19.0297
2407.27	15.4266
2409.27	15.2632
2411.26	15.8487
2413.25	16.2359
2415.25	17.7707
2417.24	17.1315
2419.22	16.1117
2421.21	17.731
2423.2	15.6179
2425.19	17.0221
2427.17	14.893
2429.16	17.1493
2431.14	19.2804
2433.13	17.3421
2435.11	18.1112
2437.09	18.9717
2439.07	17.4894
2441.05	16.3962
2443.03	18.8422
2445.01	19.7928
2446.98	22.8619
2448.96	20.2695
2450.93	22.7037
2452.91	20.4993
2454.88	19.5469
2456.85	18.9206
2458.83	16.8755
2460.8	19.2521
2462.77	19.2537
2464.74	16.9297
2466.7	17.0408
2468.67	16.7916
2470.64	17.4359
2472.6	14.7252
2474.57	17.2331
2476.53	15.7223
2478.49	17.3936
2480.46	15.8092
2482.42	15.0973
2484.38	19.1465
2486.34	19.6783
2488.29	18.8109
2490.25	22.3583
2492.21	22.8219
2494.16	22.9067
2496.12	21.5851
2498.07	17.9735
2500.03	18.0717
2501.98	16.7308
2503.93	17.5117
2505.88	17.0116
2507.83	24.5982
2509.78	23.8338
2511.73	32.5494
2513.67	39.7183
2515.62	31.5913
2517.56	29.0421
2519.51	24.1719
2521.45	19.7003
2523.4	20.5576
2525.34	18.2027
2527.28	16.5801
2529.22	15.2296
2531.16	16.1625
2533.1	17.166
2535.03	19.7563
2536.97	21.0487
2538.91	25.5821
2540.84	20.4353
2542.77	21.2488
2544.71	19.6425
2546.64	17.598
2548.57	17.4755
2550.5	15.1426
2552.43	15.0473
2554.36	14.5626
2556.29	13.2643
2558.21	16.8359
2560.14	13.2207
2562.07	15.4975
2563.99	14.3472
2565.91	15.7696
2567.84	13.2559
2569.76	11.8092
2571.68	16.4941
2573.6	13.4975
2575.52	13.1374
2577.44	13.0241
2579.36	13.1513
2581.27	13.512
2583.19	13.2587
2585.1	14.9386
2587.02	12.4333
2588.93	13.0626
2590.84	11.3627
2592.75	10.62
2594.67	14.587
2596.58	14.365
2598.48	14.7252
2600.39	14.0266
