105.443	6128.38
108.528	5493.24
111.612	4815.49
114.693	4242.71
117.774	3730.28
120.854	3219.66
123.931	2853.9
127.007	2531.24
130.081	2212.83
133.155	1946.64
136.226	1726.41
139.296	1527.24
142.364	1330.79
145.431	1171.62
148.496	1057.06
151.559	953.515
154.622	835.784
157.682	765.056
160.741	694.179
163.799	618.121
166.855	559.514
169.91	515.594
172.963	454.97
176.014	423.163
179.064	390.325
182.113	354.062
185.16	323.984
188.205	297.418
191.249	278.016
194.291	260.167
197.333	255.556
200.372	238.892
203.409	204.399
206.446	201.932
209.48	190.96
212.514	192.608
215.546	174.525
218.577	170.033
221.605	158.709
224.633	154.773
227.658	152.358
230.682	146.531
233.706	140.405
236.727	135.386
239.747	133.238
242.765	125.96
245.782	128.384
248.797	122.13
251.811	122.993
254.823	118.131
257.834	119.909
260.844	110.586
263.852	109.567
266.858	109.612
269.863	105.808
272.866	104.546
275.868	111.103
278.869	111.386
281.867	111.057
284.865	104.627
287.861	107.571
290.856	104.287
293.848	105.506
296.84	111.387
299.83	106.959
302.819	103.977
305.806	107.031
308.791	108.552
311.775	98.8998
314.758	104.682
317.739	105.497
320.719	101.682
323.697	103.334
326.674	110.734
329.649	109.561
332.623	110.556
335.595	108.889
338.566	106.585
341.535	104.053
344.504	105.141
347.47	110.824
350.434	107.243
353.399	104.191
356.36	107.913
359.321	100.079
362.281	101.743
365.238	105.299
368.194	108.72
371.149	109.132
374.102	104.132
377.054	114.102
380.005	116.833
382.954	114.497
385.901	122.911
388.847	133.979
391.792	137.377
394.735	133.634
397.676	133.76
400.617	129.531
403.555	125.593
406.493	116.395
409.429	113.372
412.363	111.608
415.297	111.994
418.228	103.298
421.158	102.975
424.087	102.102
427.014	92.0908
429.94	99.071
432.864	95.9445
435.787	99.4655
438.709	93.0451
441.629	96.7265
444.547	86.7887
447.464	92.1796
450.38	92.085
453.294	90.6679
456.208	85.8334
459.119	83.289
462.028	83.4448
464.938	86.3251
467.844	85.5042
470.75	85.6678
473.654	86.9626
476.557	83.1732
479.459	81.2929
482.359	81.6585
485.257	79.8944
488.154	83.5436
491.05	81.1459
493.945	79.6404
496.838	81.9902
499.729	82.3192
502.619	78.097
505.508	79.5761
508.395	78.7531
511.281	79.1722
514.165	78.5309
517.049	78.219
519.93	80.0461
522.81	81.3416
525.689	79.4283
528.566	73.7833
531.442	79.6267
534.317	83.0508
537.19	81.7042
540.062	84.0306
542.932	81.5655
545.801	80.1971
548.669	84.8529
551.534	81.257
554.399	83.9928
557.262	82.1391
560.124	89.468
562.985	93.5362
565.844	95.3293
568.702	93.1668
571.558	101.993
574.413	107.849
577.266	120.687
580.118	128.571
582.969	144.368
585.819	183.756
588.666	239.586
591.513	347.442
594.359	530.173
597.202	761.724
600.045	780.173
602.885	598.908
605.725	400.046
608.564	265.021
611.4	201.946
614.236	163.478
617.07	132.003
619.902	120.755
622.734	106.045
625.564	106.529
628.393	101.678
631.219	97.9099
634.045	96.0704
636.87	92.6101
639.693	87.0041
642.515	89.4686
645.335	89.1353
648.153	87.8653
650.971	88.0953
653.787	88.8944
656.602	88.2182
659.416	94.7819
662.228	89.196
665.038	86.6713
667.848	92.2976
670.655	92.8142
673.462	94.3715
676.268	96.6474
679.071	85.0557
681.874	85.0186
684.675	82.2517
687.475	85.2918
690.273	86.1535
693.07	76.9818
695.866	77.6749
698.66	76.5712
701.453	78.2278
704.244	74.1668
707.035	75.4793
709.824	76.3666
712.612	73.6464
715.397	77.8707
718.183	76.5978
720.966	74.9042
723.748	73.1459
726.529	73.0111
729.308	74.5443
732.087	74.6319
734.863	72.7686
737.639	75.5974
740.413	70.5283
743.186	70.5707
745.956	72.9957
748.726	75.0299
751.495	73.003
754.262	75.651
757.029	77.1019
759.793	77.6212
762.557	76.0615
765.318	75.1221
768.079	81.0974
770.839	78.6267
773.597	79.8359
776.353	78.8637
779.109	85.5463
781.862	84.7457
784.615	93.5447
787.366	96.4666
790.116	110.546
792.865	111.753
795.612	115.531
798.358	107.582
801.102	102.09
803.846	98.6363
806.588	89.6017
809.329	85.7696
812.068	88.4223
814.806	92.4032
817.542	97.0988
820.278	100.631
823.012	103.728
825.744	104.325
828.476	107.839
831.206	121.182
833.935	127.581
836.662	148.8
839.388	156.025
842.113	159.51
844.836	152.965
847.558	135.927
850.279	121.125
852.999	103.679
855.718	89.3266
858.435	86.5974
861.15	87.2934
863.865	80.9754
866.577	78.199
869.289	76.8648
871.999	80.8445
874.709	77.9445
877.417	71.0201
880.123	73.389
882.828	69.2141
885.531	73.8017
888.234	71.2085
890.936	74.538
893.635	74.1088
896.334	70.1673
899.031	70.4772
901.728	69.5854
904.422	68.9094
907.116	73.8585
909.808	74.1316
912.499	71.1267
915.188	72.6722
917.877	79.6112
920.563	72.6405
923.249	80.9881
925.934	85.6914
928.617	87.3279
931.298	91.5714
933.979	91.3072
936.658	97.1123
939.336	90.9972
942.013	95.9881
944.688	95.8861
947.362	98.4183
950.035	98.1322
952.706	106.132
955.377	112.521
958.045	144.101
960.714	165.969
963.38	216.049
966.044	296.385
968.709	484.21
971.372	772.783
974.033	1179.62
976.693	1668.63
979.351	2718.08
982.009	6871.09
984.665	11166.1
987.32	7836.26
989.974	4172.44
992.626	2130.74
995.277	993.363
997.926	556.573
1000.57	347.031
1003.22	234.056
1005.87	182.196
1008.51	143.882
1011.16	127.641
1013.8	121.237
1016.44	109.701
1019.08	107.364
1021.72	109.071
1024.35	107.836
1026.99	103.157
1029.63	96.9738
1032.26	93.0658
1034.89	91.085
1037.52	86.1552
1040.15	93.4449
1042.78	86.3991
1045.41	88.7867
1048.03	81.9797
1050.66	79.7282
1053.28	78.5151
1055.9	85.3802
1058.52	81.3018
1061.14	87.9818
1063.76	76.8643
1066.38	85.8292
1068.99	89.877
1071.61	85.4655
1074.22	84.6127
1076.83	87.1901
1079.44	83.1455
1082.05	77.0356
1084.66	79.7327
1087.27	87.2921
1089.87	83.816
1092.48	76.9138
1095.08	83.3587
1097.68	82.8245
1100.29	77.2433
1102.88	77.9188
1105.48	77.6965
1108.08	80.6672
1110.68	80.8435
1113.27	81.0169
1115.86	83.7069
1118.46	91.3905
1121.05	85.7808
1123.64	93.3709
1126.23	92.413
1128.81	98.1769
1131.4	102.894
1133.98	110.654
1136.57	118.841
1139.15	122.658
1141.73	125.904
1144.31	133.515
1146.89	140.545
1149.47	145.132
1152.04	164.237
1154.62	189.418
1157.19	224.005
1159.76	274.233
1162.33	375.518
1164.9	472.085
1167.47	611.518
1170.04	671.751
1172.61	604.496
1175.17	501.425
1177.74	384.325
1180.3	292.764
1182.86	227.463
1185.42	191.395
1187.98	166.95
1190.54	149.329
1193.09	129.857
1195.65	118.746
1198.2	110.544
1200.76	107.932
1203.31	107.609
1205.86	102.897
1208.41	98.3944
1210.96	100.181
1213.5	93.9737
1216.05	94.0557
1218.59	91.0849
1221.14	85.6558
1223.68	85.5001
1226.22	84.5324
1228.76	85.1668
1231.3	88.4655
1233.84	88.4596
1236.37	86.5766
1238.91	83.0615
1241.44	83.6075
1243.97	85.0195
1246.5	84.5933
1249.03	84.3251
1251.56	89.1772
1254.09	80.5245
1256.62	86.7642
1259.14	84.1657
1261.67	83.021
1264.19	81.5304
1266.71	83.6787
1269.23	85.6212
1271.75	87.9754
1274.27	83.213
1276.78	85.2522
1279.3	89.702
1281.81	87.407
1284.33	88.9653
1286.84	90.4959
1289.35	85.7457
1291.86	92.9919
1294.37	94.3071
1296.88	95.2369
1299.38	95.1918
1301.89	93.8738
1304.39	90.9651
1306.89	93.9957
1309.4	94.2082
1311.9	93.9281
1314.4	97.7324
1316.89	96.0737
1319.39	92.3433
1321.89	97.8121
1324.38	100.038
1326.87	107.935
1329.37	101.764
1331.86	102.247
1334.35	98.5001
1336.83	106.738
1339.32	107.695
1341.81	109.848
1344.29	110.354
1346.78	111.243
1349.26	113.033
1351.74	116.994
1354.22	111.503
1356.7	111.005
1359.18	110.914
1361.65	118.529
1364.13	116.001
1366.6	114.919
1369.08	115.883
1371.55	112.167
1374.02	114.557
1376.49	119.776
1378.96	107.41
1381.43	113.769
1383.89	111.001
1386.36	111.641
1388.82	114.978
1391.28	115.752
1393.75	119.992
1396.21	130.45
1398.67	137.372
1401.12	129.799
1403.58	121.746
1406.04	123.188
1408.49	111.692
1410.95	108.107
1413.4	116.808
1415.85	108.354
1418.3	106.679
1420.75	104.793
1423.2	110.579
1425.64	105.77
1428.09	102.294
1430.53	110.233
1432.97	106.529
1435.42	109.248
1437.86	99.5665
1440.3	111.223
1442.74	103.103
1445.17	105.132
1447.61	103.904
1450.05	105.2
1452.48	108.404
1454.91	106.752
1457.34	107.07
1459.77	105.303
1462.2	100.64
1464.63	106.348
1467.06	108.9
1469.48	105.086
1471.91	105.697
1474.33	108.266
1476.76	105.746
1479.18	102.919
1481.6	101.881
1484.02	97.5304
1486.44	100.45
1488.85	99.1315
1491.27	101.885
1493.68	105.378
1496.1	100.082
1498.51	99.2253
1500.92	100.49
1503.33	99.7186
1505.74	93.516
1508.15	105.805
1510.55	104.2
1512.96	100.674
1515.36	98.1961
1517.77	101.098
1520.17	100.455
1522.57	103.357
1524.97	102.34
1527.37	99.5123
1529.77	98.4363
1532.16	104.509
1534.56	105.318
1536.95	104.77
1539.35	107.818
1541.74	108.843
1544.13	114.255
1546.52	108.285
1548.91	117.099
1551.3	121.185
1553.68	119.248
1556.07	126.146
1558.45	132.208
1560.84	147.501
1563.22	153.95
1565.6	164.683
1567.98	190.076
1570.36	219.799
1572.74	250.567
1575.11	298.571
1577.49	341.834
1579.86	375.797
1582.24	363.007
1584.61	308.418
1586.98	271.319
1589.35	230.125
1591.72	238.567
1594.08	240.177
1596.45	271.867
1598.82	291.294
1601.18	296.624
1603.54	254.343
1605.91	219.421
1608.27	196.034
1610.63	161.922
1612.99	152.547
1615.34	136.349
1617.7	125.349
1620.06	120.914
1622.41	112.386
1624.76	108.546
1627.12	109.391
1629.47	106.465
1631.82	100.879
1634.17	97.8919
1636.51	94.0528
1638.86	95.7833
1641.21	94.3364
1643.55	87.7069
1645.9	87.3384
1648.24	87.6054
1650.58	85.3177
1652.92	86.6234
1655.26	86.5517
1657.6	85.2378
1659.93	81.0239
1662.27	85.0557
1664.6	83.2081
1666.94	81.4683
1669.27	77.7069
1671.6	80.6973
1673.93	82.8084
1676.26	81.2194
1678.59	82.6914
1680.92	82.9387
1683.24	84.7973
1685.57	83.1297
1687.89	84.3029
1690.22	84.829
1692.54	81.4182
1694.86	80.9859
1697.18	82.9813
1699.5	83.9041
1701.81	76.3385
1704.13	77.2959
1706.45	77.5419
1708.76	82.5294
1711.07	73.6877
1713.38	75.483
1715.7	69.7174
1718.01	70.1306
1720.31	72.4513
1722.62	75.6823
1724.93	71.4527
1727.24	75.0795
1729.54	68.7244
1731.84	70.5087
1734.15	71.4213
1736.45	64.8585
1738.75	68.2099
1741.05	66.071
1743.35	65.6292
1745.64	68.5766
1747.94	62.7531
1750.23	68.6829
1752.53	68.7383
1754.82	65.3183
1757.11	64.9041
1759.4	62.5862
1761.69	71.3581
1763.98	62.6543
1766.27	63.021
1768.56	65.3251
1770.84	63.5941
1773.13	67.1496
1775.41	67.0003
1777.69	62.2263
1779.97	60.0658
1782.25	61.9128
1784.53	61.465
1786.81	65.5527
1789.09	61.196
1791.36	64.2433
1793.64	57.4601
1795.91	65.5048
1798.18	65.6544
1800.46	60.3544
1802.73	54.2071
1805	57.5123
1807.27	59.4826
1809.53	56.4242
1811.8	56.2784
1814.07	60.6492
1816.33	57.8276
1818.59	63.0348
1820.86	59.3911
1823.12	60.4826
1825.38	54.4475
1827.64	57.4193
1829.89	58.1297
1832.15	58.6516
1834.41	61.1976
1836.66	57.5257
1838.92	58.642
1841.17	55.2754
1843.42	57.5712
1845.67	59.1514
1847.92	65.9556
1850.17	55.6415
1852.42	56.8456
1854.67	56.8664
1856.91	54.8721
1859.16	59.37
1861.4	54.8058
1863.64	56.9818
1865.88	54.5091
1868.12	53.153
1870.36	56.2253
1872.6	56.9797
1874.84	54.5436
1877.08	53.6164
1879.31	55.578
1881.54	53.3443
1883.78	58.7968
1886.01	55.1875
1888.24	52.0152
1890.47	51.3954
1892.7	50.0429
1894.93	52.7515
1897.16	53.0422
1899.38	54.2804
1901.61	51.2461
1903.83	54.2607
1906.05	47.9451
1908.28	51.9498
1910.5	53.5566
1912.72	50.9461
1914.94	49.6738
1917.16	51.3057
1919.37	55.103
1921.59	54.0737
1923.8	54.6982
1926.02	51.4749
1928.23	49.8493
1930.44	54.8777
1932.65	54.7184
1934.86	50.1961
1937.07	47.3529
1939.28	52.5586
1941.48	49.8766
1943.69	50.6311
1945.9	44.642
1948.1	52.4283
1950.3	48.7887
1952.5	49.3204
1954.7	48.5102
1956.9	47.9849
1959.1	43.4505
1961.3	51.4242
1963.5	45.4416
1965.69	47.9807
1967.89	48.404
1970.08	45.5665
1972.27	45.0328
1974.46	50.0896
1976.66	45.0348
1978.84	45.6271
1981.03	47.5234
1983.22	44.4554
1985.41	43.2662
1987.59	42.3544
1989.78	43.0954
1991.96	45.9253
1994.14	47.5102
1996.32	41.7058
1998.51	45.1417
2000.69	43.7887
2002.86	39.5862
2005.04	41.1083
2007.22	40.3519
2009.39	42.0051
2011.57	40.2182
2013.74	42.6633
2015.91	43.1865
2018.09	41.6862
2020.26	40.7423
2022.43	41.9918
2024.59	42.1322
2026.76	40.1668
2028.93	37.8748
2031.09	40.3443
2033.26	40.0907
2035.42	35.7531
2037.59	40.1961
2039.75	42.6713
2041.91	36.6415
2044.07	35.8076
2046.23	39.9253
2048.38	37.9195
2050.54	37.5523
2052.7	36.197
2054.85	34.5702
2057	34.5805
2059.16	31.5007
2061.31	35.5714
2063.46	33.8498
2065.61	33.1417
2067.76	36.5602
2069.91	33.8585
2072.05	34.8797
2074.2	34.847
2076.34	32.9074
2078.49	32.7376
2080.63	36.1417
2082.77	34.0239
2084.91	35.021
2087.05	34.3165
2089.19	35.2929
2091.33	31.2779
2093.47	32.071
2095.6	35.6118
2097.74	31.3485
2099.87	33.0712
2102.01	32.0562
2104.14	33.1796
2106.27	32.8817
2108.4	36.4569
2110.53	33.4457
2112.66	31.8047
2114.79	31.1322
2116.91	31.5432
2119.04	33.2179
2121.16	30.1221
2123.29	29.6464
2125.41	29.6405
2127.53	30.8169
2129.65	29.3304
2131.77	30.4422
2133.89	30.2715
2136.01	25.1221
2138.12	31.7979
2140.24	30.1476
2142.35	31.7324
2144.47	27.8435
2146.58	31.6813
2148.69	30.1179
2150.8	28.793
2152.91	26.8025
2155.02	28.6555
2157.13	28.4699
2159.24	29.1673
2161.34	28.404
2163.45	27.034
2165.55	27.5889
2167.66	32.5432
2169.76	42.321
2171.86	28.5979
2173.96	31.6719
2176.06	28.3588
2178.16	31.7376
2180.26	33.3752
2182.35	29.1258
2184.45	29.5473
2186.54	27.4183
2188.64	27.5257
2190.73	30.3129
2192.82	25.4198
2194.91	24.4286
2197	26.4029
2199.09	24.8163
2201.18	26.6054
2203.27	26.3639
2205.35	25.0205
2207.44	25.4011
2209.52	26.9977
2211.61	31.1688
2213.69	29.7885
2215.77	27.14
2217.85	25.837
2219.93	25.4123
2222.01	27.1726
2224.09	23.8398
2226.16	21.9099
2228.24	28.3293
2230.31	24.1609
2232.39	24.768
2234.46	24.6254
2236.53	26.4011
2238.6	23.4976
2240.67	25.8843
2242.74	25.8989
2244.81	24.3661
2246.88	25.4836
2248.94	26.5663
2251.01	27.6436
2253.07	23.9546
2255.14	23.2273
2257.2	23.8344
2259.26	24.3965
2261.32	24.0706
2263.38	24.2427
2265.44	29.084
2267.5	22.8998
2269.56	25.7085
2271.61	22.2177
2273.67	22.8978
2275.72	19.7627
2277.78	27.2644
2279.83	25.4937
2281.88	23.4001
2283.93	23.3649
2285.98	23.0706
2288.03	25.5761
2290.08	26.6272
2292.12	28.8013
2294.17	23.8276
2296.21	25.1821
2298.26	22.0239
2300.3	23.7042
2302.34	24.9503
2304.38	23.0706
2306.42	23.9818
2308.46	21.9408
2310.5	26.642
2312.54	21.835
2314.58	21.7546
2316.61	23.9739
2318.65	22.7462
2320.68	21.0348
2322.71	24.3485
2324.75	22.4973
2326.78	22.5473
2328.81	23.3859
2330.84	19.7184
2332.86	23.6176
2334.89	22.9217
2336.92	23.5293
2338.94	23.5794
2340.97	23.0562
2342.99	23.1726
2345.02	22.6007
2347.04	22.3602
2349.06	21.801
2351.08	22.9312
2353.1	18.1322
2355.12	25.0716
2357.13	23.1726
2359.15	21.2976
2361.17	23.4117
2363.18	23.4772
2365.19	25.0255
2367.21	20.9595
2369.22	25.2799
2371.23	19.7988
2373.24	21.8229
2375.25	20.5293
2377.26	21.9417
2379.27	22.6262
2381.27	21.1267
2383.28	20.8239
2385.28	22.3831
2387.29	18.8306
2389.29	18.1873
2391.29	19.3225
2393.29	18.0716
2395.29	18.4043
2397.29	20.4655
2399.29	20.5055
2401.29	21.5904
2403.28	19.204
2405.28	21.8643
2407.27	17.5709
2409.27	20.2986
2411.26	20.3544
2413.25	19.7378
2415.25	18.5766
2417.24	20.6982
2419.22	20.7345
2421.21	18.7069
2423.2	18.5947
2425.19	20.4592
2427.17	18.7324
2429.16	21.6112
2431.14	21.0971
2433.13	22.1259
2435.11	21.4043
2437.09	19.4362
2439.07	24.0154
2441.05	21.7781
2443.03	22.071
2445.01	21.1642
2446.98	21.9402
2448.96	24.0704
2450.93	25.0156
2452.91	21.3862
2454.88	22.1823
2456.85	22.4942
2458.83	21.2199
2460.8	20.0795
2462.77	20.2461
2464.74	18.7373
2466.7	18.8397
2468.67	18.6877
2470.64	19.5234
2472.6	18.6171
2474.57	16.8808
2476.53	18.389
2478.49	22.1417
2480.46	18.3538
2482.42	19.7748
2484.38	17.6265
2486.34	19.951
2488.29	21.2273
2490.25	17.6176
2492.21	25.2607
2494.16	23.5199
2496.12	21.8027
2498.07	20.3991
2500.03	21.5613
2501.98	20.9419
2503.93	21.8627
2505.88	24.0429
2507.83	25.0981
2509.78	26.5347
2511.73	33.2538
2513.67	35.6112
2515.62	31.3991
2517.56	28.6527
2519.51	27.2826
2521.45	21.7223
2523.4	19.2378
2525.34	16.8309
2527.28	16.951
2529.22	20.0201
2531.16	19.021
2533.1	20.103
2535.03	20.4182
2536.97	21.5815
2538.91	22.2155
2540.84	25.1643
2542.77	23.2002
2544.71	24.349
2546.64	18.2327
2548.57	18.2183
2550.5	18.211
2552.43	18.3225
2554.36	15.2625
2556.29	16.45
2558.21	17.344
2560.14	14.5616
2562.07	15.4863
2563.99	15.8919
2565.91	15.8309
2567.84	16.3469
2569.76	18.6175
2571.68	12.9797
2573.6	15.3529
2575.52	15.247
2577.44	16.7324
2579.36	17.0528
2581.27	14.8047
2583.19	15.3225
2585.1	14.5008
2587.02	14.2099
2588.93	15.7323
2590.84	16.1029
2592.75	16.2959
2594.67	13.6112
2596.58	12.1769
2598.48	16.3581
2600.39	14.1624
