105.443	6068.6
108.528	5462.08
111.612	4774.25
114.693	4212.52
117.774	3688.48
120.854	3248.71
123.931	2826.5
127.007	2471.54
130.081	2195.15
133.155	1917.1
136.226	1719.97
139.296	1501.18
142.364	1340.76
145.431	1172.7
148.496	1061.88
151.559	932.882
154.622	834.511
157.682	758.341
160.741	686.362
163.799	613.151
166.855	561.452
169.91	500.519
172.963	453.213
176.014	404.164
179.064	387.217
182.113	353.289
185.16	327.095
188.205	296.85
191.249	284.08
194.291	262.395
197.333	240.685
200.372	229.454
203.409	211.244
206.446	206.314
209.48	193.401
212.514	176.169
215.546	172.317
218.577	163.787
221.605	156.903
224.633	153.244
227.658	147.839
230.682	147.072
233.706	140.993
236.727	137.786
239.747	136.628
242.765	126.448
245.782	126.226
248.797	126.858
251.811	119.791
254.823	117.28
257.834	115.232
260.844	115.302
263.852	109.429
266.858	107.758
269.863	109.409
272.866	107.635
275.868	107.464
278.869	115.911
281.867	107.565
284.865	110.67
287.861	106.151
290.856	104.673
293.848	107.327
296.84	108.398
299.83	103.569
302.819	109.743
305.806	99.8304
308.791	111.206
311.775	103.176
314.758	101.127
317.739	104.575
320.719	107.644
323.697	103.38
326.674	106.52
329.649	116.868
332.623	105.08
335.595	104.763
338.566	106.749
341.535	105.867
344.504	102.274
347.47	106.34
350.434	103.902
353.399	103.111
356.36	106.754
359.321	104.216
362.281	104.247
365.238	103.97
368.194	101.994
371.149	103.787
374.102	105.349
377.054	111.005
380.005	109.146
382.954	114.194
385.901	118.95
388.847	126.653
391.792	125.136
394.735	131.614
397.676	132.4
400.617	124.472
403.555	113.578
406.493	112.763
409.429	117.193
412.363	107.159
415.297	107.344
418.228	102.647
421.158	103.622
424.087	98.9187
427.014	96.7788
429.94	92.4094
432.864	98.5127
435.787	96.6905
438.709	90.1489
441.629	93.9082
444.547	96.5779
447.464	91.7592
450.38	84.2994
453.294	93.4299
456.208	85.3572
459.119	88.9033
462.028	79.7465
464.938	82.8498
467.844	83.3232
470.75	82.9953
473.654	80.742
476.557	79.5114
479.459	84.565
482.359	80.276
485.257	78.2256
488.154	77.7035
491.05	80.8154
493.945	84.3387
496.838	76.6525
499.729	81.2081
502.619	81.3153
505.508	77.2868
508.395	77.6763
511.281	83.1038
514.165	86.8076
517.049	77.1854
519.93	75.0601
522.81	76.3726
525.689	78.2877
528.566	81.9112
531.442	78.5865
534.317	75.0226
537.19	76.0393
540.062	82.3487
542.932	82.6738
545.801	76.7488
548.669	83.7004
551.534	86.9914
554.399	88.0915
557.262	86.9411
560.124	85.6223
562.985	91.1089
565.844	89.791
568.702	96.5259
571.558	104.245
574.413	109.746
577.266	112.246
580.118	127.087
582.969	150.688
585.819	179.203
588.666	241.109
591.513	337.015
594.359	521.174
597.202	754.307
600.045	780.711
602.885	582.805
605.725	394.321
608.564	267.711
611.4	197.824
614.236	156.733
617.07	134.529
619.902	117.882
622.734	111.599
625.564	102.873
628.393	102.533
631.219	95.2065
634.045	93.7129
636.87	92.3428
639.693	86.6037
642.515	83.8026
645.335	78.621
648.153	86.7872
650.971	89.0821
653.787	80.6798
656.602	85.6286
659.416	84.6654
662.228	89.0309
665.038	90.1183
667.848	87.6645
670.655	95.0753
673.462	88.8064
676.268	88.1154
679.071	84.9535
681.874	82.0371
684.675	84.4359
687.475	80.46
690.273	79.0462
693.07	79.4448
695.866	77.4431
698.66	74.9533
701.453	74.7922
704.244	73.541
707.035	74.3282
709.824	76.5602
712.612	72.0897
715.397	71.6745
718.183	75.1627
720.966	71.0072
723.748	75.9112
726.529	73.8155
729.308	67.1089
732.087	74.4516
734.863	69.4478
737.639	70.0377
740.413	72.8155
743.186	70.4372
745.956	75.4926
748.726	76.2445
751.495	76.7205
754.262	70.7617
757.029	70.8788
759.793	73.4539
762.557	81.9021
765.318	72.6748
768.079	78.3855
770.839	76.4372
773.597	83.1388
776.353	83.141
779.109	84.8577
781.862	87.215
784.615	95.5781
787.366	100.951
790.116	108.928
792.865	121.165
795.612	118.898
798.358	112.402
801.102	92.6162
803.846	89.4054
806.588	87.7526
809.329	79.3274
812.068	87.6226
814.806	85.9889
817.542	88.2355
820.278	93.9354
823.012	100.12
825.744	108.26
828.476	106.508
831.206	119.522
833.935	125.937
836.662	138.541
839.388	162.064
842.113	164.415
844.836	146.762
847.558	140.544
850.279	112.428
852.999	104.256
855.718	86.6402
858.435	86.8662
861.15	84.3107
863.865	82.3333
866.577	79.6928
869.289	79.7038
871.999	73.4133
874.709	73.23
877.417	73.312
880.123	69.1278
882.828	73.1999
885.531	76.4218
888.234	74.4189
890.936	70.8422
893.635	70.2867
896.334	70.1489
899.031	75.6616
901.728	73.4026
904.422	73.2854
907.116	70.65
909.808	73.5043
912.499	70.4991
915.188	71.3559
917.877	74.7728
920.563	77.1765
923.249	81.4155
925.934	82.429
928.617	79.1872
931.298	98.2445
933.979	95.6692
936.658	90.6223
939.336	88.3572
942.013	86.3834
944.688	92.3934
947.362	95.7811
950.035	102.924
952.706	109.63
955.377	122.178
958.045	137.907
960.714	173.935
963.38	215.868
966.044	308.578
968.709	476.001
971.372	768.462
974.033	1152.19
976.693	1584.8
979.351	2641.63
982.009	6764.01
984.665	11021.3
987.32	7857.98
989.974	4156.08
992.626	2127.91
995.277	984.651
997.926	544.281
1000.57	344.007
1003.22	229.447
1005.87	176.332
1008.51	150.791
1011.16	124.986
1013.8	118.95
1016.44	113.565
1019.08	107.623
1021.72	99.2499
1024.35	101.256
1026.99	102.12
1029.63	96.2377
1032.26	92.9112
1034.89	89.9059
1037.52	87.9569
1040.15	88.9379
1042.78	81.0104
1045.41	77.824
1048.03	80.4589
1050.66	79.7312
1053.28	82.1054
1055.9	79.2017
1058.52	80.0104
1061.14	76.7882
1063.76	74.3965
1066.38	82.9404
1068.99	85.9449
1071.61	82.5534
1074.22	84.5089
1076.83	82.6915
1079.44	81.0343
1082.05	79.9833
1084.66	78.1933
1087.27	77.8304
1089.87	74.5804
1092.48	76.926
1095.08	80.0378
1097.68	78.3367
1100.29	76.0226
1102.88	79.7144
1105.48	78.9654
1108.08	85.9619
1110.68	82.4898
1113.27	83.0001
1115.86	88.9069
1118.46	86.8509
1121.05	90.4286
1123.64	87.0671
1126.23	94.1183
1128.81	96.4721
1131.4	102.845
1133.98	103.324
1136.57	114.009
1139.15	122.171
1141.73	124.699
1144.31	137.2
1146.89	147.179
1149.47	150.805
1152.04	162.161
1154.62	177.467
1157.19	220.827
1159.76	274.846
1162.33	348.691
1164.9	464.512
1167.47	593.41
1170.04	652.847
1172.61	612.369
1175.17	499.557
1177.74	378.743
1180.3	287.124
1182.86	233.825
1185.42	188.254
1187.98	151.603
1190.54	140.809
1193.09	127.462
1195.65	120.472
1198.2	108.194
1200.76	104.08
1203.31	101.714
1205.86	99.5778
1208.41	100.371
1210.96	100.468
1213.5	87.1589
1216.05	88.091
1218.59	84.3805
1221.14	83.2431
1223.68	79.6594
1226.22	82.0043
1228.76	83.1615
1231.3	81.4157
1233.84	89.2046
1236.37	79.8026
1238.91	83.1982
1241.44	83.3557
1243.97	84.3551
1246.5	83.8304
1249.03	79.3438
1251.56	82.6201
1254.09	79.0671
1256.62	85.3503
1259.14	80.9392
1261.67	82.689
1264.19	79.7491
1266.71	84.6617
1269.23	81.2294
1271.75	83.3491
1274.27	85.8819
1276.78	83.7882
1279.3	83.1505
1281.81	89.7398
1284.33	88.3427
1286.84	84.637
1289.35	83.0157
1291.86	91.526
1294.37	83.9535
1296.88	92.4766
1299.38	87.6377
1301.89	90.3572
1304.39	92.8993
1306.89	84.6508
1309.4	96.7183
1311.9	91.689
1314.4	89.6811
1316.89	99.2484
1319.39	92.6799
1321.89	97.0308
1324.38	95.9111
1326.87	97.9137
1329.37	96.4683
1331.86	98.6761
1334.35	102.674
1336.83	101.467
1339.32	96.0072
1341.81	103.539
1344.29	105.521
1346.78	106.937
1349.26	103.92
1351.74	110.797
1354.22	115.608
1356.7	111.484
1359.18	105.615
1361.65	110.838
1364.13	107.787
1366.6	111.715
1369.08	111.685
1371.55	106.91
1374.02	110.731
1376.49	103.51
1378.96	105.839
1381.43	106.257
1383.89	111.488
1386.36	113.845
1388.82	108.695
1391.28	110.598
1393.75	118.113
1396.21	127.969
1398.67	129.511
1401.12	119.363
1403.58	120.801
1406.04	113.534
1408.49	109.578
1410.95	107.638
1413.4	104.971
1415.85	98.647
1418.3	107.793
1420.75	99.4821
1423.2	102.771
1425.64	104.285
1428.09	95.965
1430.53	104.272
1432.97	99.7322
1435.42	105.175
1437.86	103.891
1440.3	103.285
1442.74	103.373
1445.17	104.859
1447.61	105.235
1450.05	96.5115
1452.48	102.111
1454.91	106.97
1457.34	106.029
1459.77	104.114
1462.2	102.804
1464.63	104.647
1467.06	103.937
1469.48	103.129
1471.91	104.772
1474.33	101.26
1476.76	102.536
1479.18	101.415
1481.6	99.4961
1484.02	96.7308
1486.44	103.347
1488.85	101.298
1491.27	101.31
1493.68	99.3427
1496.1	103.239
1498.51	97.6991
1500.92	95.3834
1503.33	97.3711
1505.74	101.569
1508.15	95.5244
1510.55	96.3557
1512.96	96.135
1515.36	93.4577
1517.77	97.0799
1520.17	95.7482
1522.57	99.9855
1524.97	92.8155
1527.37	97.1727
1529.77	97.1583
1532.16	99.7708
1534.56	103.673
1536.95	107.516
1539.35	103.748
1541.74	109.839
1544.13	108.623
1546.52	104.486
1548.91	113.406
1551.3	116.362
1553.68	120.649
1556.07	127.105
1558.45	137.372
1560.84	138.313
1563.22	152.659
1565.6	166.674
1567.98	190.853
1570.36	213.208
1572.74	253.981
1575.11	294.747
1577.49	327.763
1579.86	376.171
1582.24	357.427
1584.61	311.524
1586.98	267.264
1589.35	232.695
1591.72	231.026
1594.08	237.115
1596.45	257.846
1598.82	287.953
1601.18	285.447
1603.54	255.845
1605.91	230.408
1608.27	182.146
1610.63	168.951
1612.99	148.303
1615.34	139.229
1617.7	124.785
1620.06	117.193
1622.41	117.4
1624.76	112.46
1627.12	105.353
1629.47	97.6018
1631.82	104.342
1634.17	100.16
1636.51	94.2893
1638.86	93.1743
1641.21	90.4638
1643.55	92.4661
1645.9	83.6354
1648.24	88.2232
1650.58	89.327
1652.92	84.7019
1655.26	83.6157
1657.6	84.7139
1659.93	80.3428
1662.27	79.0598
1664.6	81.6238
1666.94	81.2222
1669.27	79.6428
1671.6	78.5725
1673.93	79.1636
1676.26	79.8017
1678.59	77.4499
1680.92	79.1054
1683.24	79.7718
1685.57	77.0669
1687.89	82.566
1690.22	81.4193
1692.54	79.9669
1694.86	77.4549
1697.18	82.5987
1699.5	72.2081
1701.81	75.2256
1704.13	78.1756
1706.45	76.0298
1708.76	81.4428
1711.07	70.4667
1713.38	72.7995
1715.7	71.896
1718.01	71.824
1720.31	75.1244
1722.62	66.8599
1724.93	71.0318
1727.24	72.7705
1729.54	68.826
1731.84	70.1781
1734.15	70.7155
1736.45	64.4132
1738.75	69.9594
1741.05	63.824
1743.35	68.2638
1745.64	66.191
1747.94	67.2201
1750.23	64.0362
1752.53	65.171
1754.82	61.5832
1757.11	67.4791
1759.4	62.6104
1761.69	64.1892
1763.98	61.0452
1766.27	62.135
1768.56	61.2531
1770.84	64.8115
1773.13	59.9236
1775.41	60.2256
1777.69	60.8154
1779.97	61.2747
1782.25	61.1038
1784.53	62.4231
1786.81	61.5564
1789.09	60.4706
1791.36	59.0884
1793.64	59.4706
1795.91	58.6316
1798.18	57.3031
1800.46	58.4158
1802.73	59.2326
1805	56.5395
1807.27	56.1791
1809.53	53.0654
1811.8	57.8
1814.07	59.5688
1816.33	58.6915
1818.59	55.3559
1820.86	56.27
1823.12	55.8397
1825.38	55.6056
1827.64	56.2714
1829.89	59.1618
1832.15	56.2276
1834.41	55.9265
1836.66	56.6225
1838.92	54.0009
1841.17	58.7932
1843.42	54.0576
1845.67	57.8652
1847.92	51.2294
1850.17	52.1767
1852.42	56.7019
1854.67	51.671
1856.91	52.6738
1859.16	56.2744
1861.4	55.3557
1863.64	56.5761
1865.88	55.9111
1868.12	53.9689
1870.36	53.3855
1872.6	54.818
1874.84	51.5521
1877.08	48.4001
1879.31	56.4221
1881.54	51.4003
1883.78	50.896
1886.01	48.3582
1888.24	52.8445
1890.47	50.6953
1892.7	51.3919
1894.93	51.7971
1897.16	51.2638
1899.38	51.7756
1901.61	47.8394
1903.83	47.0821
1906.05	50.1145
1908.28	46.2317
1910.5	48.1911
1912.72	52.4284
1914.94	52.0192
1917.16	41.791
1919.37	53.6874
1921.59	53.3188
1923.8	52.0632
1926.02	51.0926
1928.23	55.5327
1930.44	51.2231
1932.65	48.9021
1934.86	51.7183
1937.07	45.0472
1939.28	50.3428
1941.48	50.1854
1943.69	47.644
1945.9	50.23
1948.1	46.5609
1950.3	46.9389
1952.5	46.2077
1954.7	50.0538
1956.9	45.9414
1959.1	44.27
1961.3	40.7465
1963.5	47.4933
1965.69	48.0577
1967.89	45.3427
1970.08	44.1038
1972.27	46.8457
1974.46	43.2017
1976.66	48.8448
1978.84	41.4539
1981.03	43.5505
1983.22	44.5832
1985.41	43.5889
1987.59	40.6566
1989.78	41.8231
1991.96	43.7409
1994.14	43.5505
1996.32	42.7336
1998.51	41.8447
2000.69	37.7667
2002.86	39.9978
2005.04	38.1911
2007.22	40.9571
2009.39	41.0607
2011.57	38.7107
2013.74	40.385
2015.91	42.5076
2018.09	40.6201
2020.26	42.8614
2022.43	38.1303
2024.59	35.6115
2026.76	36.467
2028.93	37.8602
2031.09	35.1803
2033.26	34.896
2035.42	38.65
2037.59	39.4334
2039.75	38.1181
2041.91	37.1781
2044.07	34.394
2046.23	37.142
2048.38	34.6163
2050.54	31.9937
2052.7	36.8087
2054.85	33.9043
2057	34.7617
2059.16	35.8675
2061.31	32.385
2063.46	32.1048
2065.61	30.4893
2067.76	30.0548
2069.91	32.0522
2072.05	33.9581
2074.2	33.1696
2076.34	31.2294
2078.49	29.5205
2080.63	29.6377
2082.77	33.0607
2084.91	32.8684
2087.05	26.7298
2089.19	28.9021
2091.33	30.5763
2093.47	29.8788
2095.6	30.8448
2097.74	30.0743
2099.87	33.0182
2102.01	30.0094
2104.14	30.8155
2106.27	30.6355
2108.4	28.1089
2110.53	33.8624
2112.66	30.2008
2114.79	28.9404
2116.91	29.026
2119.04	29.4205
2121.16	30.2285
2123.29	29.4516
2125.41	26.5397
2127.53	28.6187
2129.65	29.638
2131.77	29.6566
2133.89	31.5948
2136.01	30.662
2138.12	30.1137
2140.24	29.3427
2142.35	28.9556
2144.47	25.3805
2146.58	28.8694
2148.69	28.4338
2150.8	29.8433
2152.91	24.0247
2155.02	27.6438
2157.13	25.0667
2159.24	29.0671
2161.34	28.3427
2163.45	23.9111
2165.55	23.9021
2167.66	31.2391
2169.76	37.0416
2171.86	29.5115
2173.96	25.1334
2176.06	24.3405
2178.16	27.0477
2180.26	31.1891
2182.35	28.5949
2184.45	29.1089
2186.54	26.4577
2188.64	25.5781
2190.73	30.6183
2192.82	27.7488
2194.91	27.3466
2197	24.4337
2199.09	25.367
2201.18	22.9842
2203.27	23.621
2205.35	26.8423
2207.44	23.824
2209.52	25.9688
2211.61	28.6491
2213.69	25.8293
2215.77	26.5858
2217.85	24.6645
2219.93	20.26
2222.01	24.8193
2224.09	27.7311
2226.16	23.4668
2228.24	21.5061
2230.31	23.9137
2232.39	23.1908
2234.46	22.3405
2236.53	22.1633
2238.6	22.8111
2240.67	25.2377
2242.74	22.7311
2244.81	27.2448
2246.88	21.2798
2248.94	22.2448
2251.01	23.3261
2253.07	22.676
2255.14	22.276
2257.2	25.3979
2259.26	22.9688
2261.32	22.1756
2263.38	22.6396
2265.44	23.7466
2267.5	23.4132
2269.56	20.9265
2271.61	25.4026
2273.67	19.7082
2275.72	22.3893
2277.78	21.9535
2279.83	26.3413
2281.88	24.2294
2283.93	23.2292
2285.98	22.2484
2288.03	22.8445
2290.08	25.5625
2292.12	27.136
2294.17	23.9366
2296.21	23.647
2298.26	21.3312
2300.3	19.1757
2302.34	25.9222
2304.38	23.1419
2306.42	20.9265
2308.46	22.5112
2310.5	22.5112
2312.54	21.7283
2314.58	20.0799
2316.61	21.2364
2318.65	21.3834
2320.68	23.7298
2322.71	20.6071
2324.75	21.1337
2326.78	20.9942
2328.81	19.9688
2330.84	19.7465
2332.86	19.5753
2334.89	20.0585
2336.92	21.9107
2338.94	20.7321
2340.97	20.9735
2342.99	18.4692
2345.02	20.1048
2347.04	21.6077
2349.06	17.9222
2351.08	19.6976
2353.1	20.971
2355.12	17.9889
2357.13	19.3037
2359.15	21.7298
2361.17	16.3581
2363.18	18.8146
2365.19	18.2593
2367.21	20.6975
2369.22	19.6172
2371.23	18.4286
2373.24	19.8064
2375.25	20.4094
2377.26	20.394
2379.27	21.3249
2381.27	21.2983
2383.28	18.6225
2385.28	19.6162
2387.29	19.2509
2389.29	17.5021
2391.29	18.8967
2393.29	19.8538
2395.29	17.5137
2397.29	18.2445
2399.29	14.2615
2401.29	22.5794
2403.28	19.2854
2405.28	19.0239
2407.27	20.5266
2409.27	19.5804
2411.26	19.0515
2413.25	18.8804
2415.25	15.8241
2417.24	17.6223
2419.22	17.4731
2421.21	16.4961
2423.2	17.3022
2425.19	17.5051
2427.17	19.8927
2429.16	19.1329
2431.14	20.0516
2433.13	18.2163
2435.11	16.371
2437.09	18.1722
2439.07	16.7705
2441.05	20.2901
2443.03	20.7334
2445.01	20.2722
2446.98	20.395
2448.96	23.356
2450.93	21.7182
2452.91	24.7227
2454.88	18.952
2456.85	19.395
2458.83	19.0607
2460.8	22.7321
2462.77	20.6056
2464.74	16.5948
2466.7	16.6415
2468.67	18.5948
2470.64	17.2484
2472.6	15.1872
2474.57	18.0488
2476.53	15.9516
2478.49	15.6745
2480.46	18.3541
2482.42	18.5634
2484.38	16.6799
2486.34	16.0222
2488.29	22.4743
2490.25	21.4299
2492.21	25.6471
2494.16	20.1573
2496.12	21.312
2498.07	20.8154
2500.03	19.3008
2501.98	18.8599
2503.93	20.0308
2505.88	19.8831
2507.83	23.4431
2509.78	22.2839
2511.73	34.1454
2513.67	35.0705
2515.62	32.9556
2517.56	30.1628
2519.51	24.446
2521.45	22.7961
2523.4	17.4397
2525.34	17.4286
2527.28	18.2484
2529.22	16.7935
2531.16	13.9533
2533.1	16.8743
2535.03	20.9128
2536.97	18.6201
2538.91	20.2055
2540.84	22.5736
2542.77	18.8
2544.71	21.57
2546.64	19.0884
2548.57	18.8137
2550.5	14.9559
2552.43	18.2556
2554.36	17.0646
2556.29	15.0743
2558.21	16.4538
2560.14	13.7871
2562.07	14.6889
2563.99	17.2471
2565.91	15.637
2567.84	13.4516
2569.76	12.9748
2571.68	13.9839
2573.6	16.4504
2575.52	14.1206
2577.44	9.80002
2579.36	11.0607
2581.27	17.3343
2583.19	12.1589
2585.1	15.2684
2587.02	13.9786
2588.93	17.6427
2590.84	11.395
2592.75	13.3022
2594.67	16.3097
2596.58	13.9937
2598.48	13.8001
2600.39	11.7466
