105.443	6111.62
108.528	5471.2
111.612	4838.76
114.693	4238.59
117.774	3664.41
120.854	3236.76
123.931	2851.72
127.007	2507.96
130.081	2219.89
133.155	1938.57
136.226	1700.51
139.296	1506.18
142.364	1344.04
145.431	1196.11
148.496	1035.72
151.559	949.858
154.622	851.596
157.682	750.125
160.741	682.507
163.799	607.866
166.855	542.572
169.91	512.402
172.963	455.753
176.014	412.342
179.064	373.972
182.113	351.426
185.16	308.594
188.205	304.047
191.249	286.461
194.291	266.2
197.333	246.458
200.372	230.957
203.409	212.946
206.446	200.941
209.48	192.59
212.514	187.084
215.546	172.815
218.577	171.778
221.605	164.611
224.633	157.293
227.658	147.458
230.682	141.289
233.706	140.008
236.727	135.572
239.747	130.174
242.765	130.456
245.782	127.618
248.797	127.365
251.811	118.173
254.823	120.835
257.834	117.59
260.844	109.422
263.852	118.355
266.858	114.066
269.863	110.875
272.866	107.374
275.868	109.462
278.869	111.646
281.867	108.123
284.865	104.587
287.861	111.28
290.856	110.737
293.848	104.538
296.84	102.012
299.83	110.427
302.819	105.813
305.806	101.074
308.791	99.4798
311.775	108.984
314.758	106.336
317.739	104.059
320.719	106.781
323.697	102.351
326.674	110.452
329.649	103.551
332.623	104.343
335.595	104.551
338.566	102.618
341.535	108.285
344.504	107.999
347.47	106.378
350.434	104.651
353.399	100.231
356.36	106.511
359.321	107.781
362.281	104.569
365.238	104.351
368.194	106.296
371.149	109.234
374.102	104.724
377.054	111.427
380.005	112.262
382.954	116.427
385.901	120.403
388.847	130.435
391.792	128.146
394.735	130.092
397.676	126.46
400.617	126.458
403.555	120.177
406.493	119.729
409.429	110.742
412.363	110.048
415.297	102.679
418.228	106.114
421.158	102.844
424.087	105.14
427.014	102.754
429.94	96.9167
432.864	94.5384
435.787	95.591
438.709	94.7903
441.629	89.8205
444.547	88.8428
447.464	87.8405
450.38	86.9278
453.294	86.6219
456.208	82.4038
459.119	87.2306
462.028	85.1413
464.938	81.2394
467.844	85.9848
470.75	83.3027
473.654	79.3673
476.557	83.8124
479.459	74.4759
482.359	79.8423
485.257	80.1951
488.154	76.2873
491.05	82.5186
493.945	78.9066
496.838	79.4847
499.729	79.3606
502.619	77.3307
505.508	75.9645
508.395	76.0526
511.281	79.5054
514.165	79.6181
517.049	82.2268
519.93	77.7605
522.81	79.3956
525.689	72.227
528.566	77.963
531.442	78.7934
534.317	80.3741
537.19	80.1701
540.062	83.1283
542.932	83.08
545.801	76.9197
548.669	80.2266
551.534	81.9954
554.399	84.2524
557.262	85.7024
560.124	88.5955
562.985	89.7229
565.844	91.8092
568.702	98.6981
571.558	101.428
574.413	109.369
577.266	118.256
580.118	128.312
582.969	150.035
585.819	176.783
588.666	241.618
591.513	346.848
594.359	527.398
597.202	762.682
600.045	771.469
602.885	591.266
605.725	394.39
608.564	265.706
611.4	203.414
614.236	160.973
617.07	135.284
619.902	123.985
622.734	106.178
625.564	110.719
628.393	107.146
631.219	91.4581
634.045	84.3505
636.87	90.7949
639.693	88.5951
642.515	87.0213
645.335	85.1815
648.153	87.9281
650.971	81.8211
653.787	87.2875
656.602	85.4049
659.416	85.0251
662.228	90.1523
665.038	90.9588
667.848	93.7356
670.655	90.1463
673.462	89.5639
676.268	90.7074
679.071	87.2537
681.874	84.3136
684.675	80.9552
687.475	80.5856
690.273	81.4616
693.07	77.5347
695.866	75.9223
698.66	77.4535
701.453	78.1288
704.244	74.1688
707.035	73.7879
709.824	74.6791
712.612	77.3105
715.397	68.5873
718.183	72.8247
720.966	70.0704
723.748	72.7147
726.529	71.0688
729.308	66.2881
732.087	69.3069
734.863	71.9865
737.639	69.936
740.413	74.5362
743.186	68.7033
745.956	71.6798
748.726	73.6695
751.495	72.6608
754.262	70.5581
757.029	76.95
759.793	74.8116
762.557	74.6131
765.318	78.158
768.079	76.3493
770.839	80.3339
773.597	79.0355
776.353	78.9588
779.109	81.5869
781.862	84.6985
784.615	94.0055
787.366	101.061
790.116	108.316
792.865	113.525
795.612	116.535
798.358	104.585
801.102	93.0119
803.846	90.1992
806.588	88.9772
809.329	84.984
812.068	85.733
814.806	91.6219
817.542	92.0125
820.278	92.2849
823.012	97.1592
825.744	102.365
828.476	106.053
831.206	115.839
833.935	127.618
836.662	141.657
839.388	161.515
842.113	163.094
844.836	151.926
847.558	130.51
850.279	111.453
852.999	104.746
855.718	94.8133
858.435	91.4883
861.15	79.9297
863.865	80.5316
866.577	78.906
869.289	73.2885
871.999	70.2562
874.709	72.7565
877.417	73.2629
880.123	72.1149
882.828	74.1153
885.531	76.1101
888.234	73.2617
890.936	72.3688
893.635	71.8096
896.334	72.999
899.031	75.525
901.728	74.6507
904.422	75.573
907.116	67.2635
909.808	76.8365
912.499	76.6725
915.188	74.9415
917.877	75.7252
920.563	76.0392
923.249	81.349
925.934	85.7638
928.617	86.6313
931.298	94.5456
933.979	95.1518
936.658	89.0319
939.336	86.7605
942.013	87.4179
944.688	86.2248
947.362	96.4264
950.035	102.977
952.706	109.239
955.377	115.735
958.045	137.942
960.714	168.222
963.38	205.894
966.044	310.778
968.709	474.92
971.372	781.59
974.033	1171.35
976.693	1621.78
979.351	2650.45
982.009	6833.68
984.665	11065.1
987.32	7811.82
989.974	4156.69
992.626	2132.68
995.277	989.091
997.926	555.875
1000.57	351.142
1003.22	227.227
1005.87	176.421
1008.51	146.778
1011.16	127.39
1013.8	118.573
1016.44	115.006
1019.08	112.638
1021.72	103.897
1024.35	102.963
1026.99	106.509
1029.63	97.3949
1032.26	96.2597
1034.89	87.906
1037.52	84.6479
1040.15	83.0038
1042.78	86.1977
1045.41	78.1774
1048.03	80.5639
1050.66	80.9531
1053.28	83.205
1055.9	81.7254
1058.52	84.1795
1061.14	83.6705
1063.76	82.9269
1066.38	82.8426
1068.99	81.4665
1071.61	86.5599
1074.22	87.5692
1076.83	85.5928
1079.44	82.1242
1082.05	82.7646
1084.66	81.6401
1087.27	77.84
1089.87	81.6573
1092.48	83.9284
1095.08	80.1504
1097.68	78.2347
1100.29	80.5698
1102.88	80.3709
1105.48	79.9552
1108.08	79.2703
1110.68	82.2921
1113.27	82.4205
1115.86	82.0589
1118.46	88.8171
1121.05	89.1628
1123.64	95.3728
1126.23	98.5098
1128.81	97.7544
1131.4	102.257
1133.98	111.505
1136.57	115.234
1139.15	119.181
1141.73	123.87
1144.31	133.658
1146.89	142.11
1149.47	148.622
1152.04	165.238
1154.62	189.431
1157.19	218.93
1159.76	281.401
1162.33	357.917
1164.9	468.671
1167.47	604.283
1170.04	656.844
1172.61	601.164
1175.17	489.48
1177.74	377.392
1180.3	280.514
1182.86	227.035
1185.42	199.888
1187.98	158.212
1190.54	141.566
1193.09	135.681
1195.65	119.064
1198.2	110.221
1200.76	101.292
1203.31	100.472
1205.86	101.449
1208.41	93.4722
1210.96	99.2722
1213.5	93.5456
1216.05	91.9605
1218.59	88.0611
1221.14	84.8389
1223.68	83.906
1226.22	86.7242
1228.76	80.8353
1231.3	82.0137
1233.84	85.6568
1236.37	84.5241
1238.91	80.1362
1241.44	84.3506
1243.97	81.5594
1246.5	86.0395
1249.03	85.7937
1251.56	83.7768
1254.09	80.3508
1256.62	82.4746
1259.14	79.454
1261.67	84.1956
1264.19	81.5416
1266.71	84.5379
1269.23	83.2921
1271.75	83.4836
1274.27	87.5316
1276.78	80.6791
1279.3	87.0171
1281.81	89.4581
1284.33	92.9557
1286.84	82.7257
1289.35	87.0104
1291.86	91.0281
1294.37	85.5717
1296.88	91.039
1299.38	90.7836
1301.89	90.2668
1304.39	92.5055
1306.89	92.2354
1309.4	93.0627
1311.9	89.5186
1314.4	90.7365
1316.89	97.7006
1319.39	93.0156
1321.89	94.0084
1324.38	92.7466
1326.87	98.3339
1329.37	105.479
1331.86	100.895
1334.35	100.938
1336.83	97.7601
1339.32	111.699
1341.81	103.372
1344.29	105.705
1346.78	110.065
1349.26	103.38
1351.74	109.529
1354.22	116.763
1356.7	115.681
1359.18	115.793
1361.65	115.014
1364.13	113.728
1366.6	111.427
1369.08	105.698
1371.55	107.68
1374.02	109.677
1376.49	111.724
1378.96	115.086
1381.43	106.236
1383.89	111.903
1386.36	115.783
1388.82	107.646
1391.28	114.821
1393.75	115.898
1396.21	129.168
1398.67	128.528
1401.12	130.45
1403.58	120.876
1406.04	114.309
1408.49	115.895
1410.95	111.866
1413.4	113.4
1415.85	106.568
1418.3	108.897
1420.75	106.91
1423.2	105.289
1425.64	110.786
1428.09	110.102
1430.53	101.204
1432.97	102.365
1435.42	99.6495
1437.86	100.4
1440.3	93.6823
1442.74	105.124
1445.17	100.813
1447.61	100.07
1450.05	105.294
1452.48	106.747
1454.91	104.405
1457.34	105.17
1459.77	102.236
1462.2	104.787
1464.63	102.458
1467.06	103.035
1469.48	102.107
1471.91	101.487
1474.33	104.758
1476.76	107.035
1479.18	101.404
1481.6	101.762
1484.02	98.7565
1486.44	102.573
1488.85	99.9349
1491.27	95.2891
1493.68	98.3673
1496.1	96.8534
1498.51	96.937
1500.92	98.1799
1503.33	98.0005
1505.74	97.0319
1508.15	101.238
1510.55	98.8131
1512.96	100.371
1515.36	93.3725
1517.77	99.8223
1520.17	95.298
1522.57	95.4138
1524.97	103.476
1527.37	93.4179
1529.77	105.176
1532.16	100.782
1534.56	103.007
1536.95	104.955
1539.35	109.892
1541.74	103.773
1544.13	109.045
1546.52	110.356
1548.91	114.198
1551.3	121.866
1553.68	121.235
1556.07	129.99
1558.45	127.35
1560.84	142.843
1563.22	153.839
1565.6	173.715
1567.98	189.365
1570.36	226.654
1572.74	252.921
1575.11	294.542
1577.49	343.258
1579.86	374.979
1582.24	356.87
1584.61	318.258
1586.98	267.795
1589.35	234.26
1591.72	222.728
1594.08	241.402
1596.45	266.54
1598.82	291.39
1601.18	285.041
1603.54	254.146
1605.91	220.84
1608.27	195.921
1610.63	168.307
1612.99	151.813
1615.34	140.178
1617.7	128.421
1620.06	119.596
1622.41	117.48
1624.76	103.647
1627.12	107.569
1629.47	103.533
1631.82	98.5201
1634.17	98.3199
1636.51	100.655
1638.86	92.6475
1641.21	90.6254
1643.55	89.8972
1645.9	90.0084
1648.24	84.8169
1650.58	81.3611
1652.92	86.6542
1655.26	87.5054
1657.6	85.2509
1659.93	82.0517
1662.27	76.9517
1664.6	80.0084
1666.94	81.2577
1669.27	79.9645
1671.6	81.0315
1673.93	80.1283
1676.26	80.0412
1678.59	82.1826
1680.92	80.5066
1683.24	79.5066
1685.57	83.3543
1687.89	82.4543
1690.22	81.95
1692.54	80.9464
1694.86	83.6735
1697.18	80.413
1699.5	78.5945
1701.81	74.2579
1704.13	73.3725
1706.45	76.1518
1708.76	82.4211
1711.07	74.6697
1713.38	70.3432
1715.7	73.5935
1718.01	71.7903
1720.31	74.613
1722.62	69.9499
1724.93	70.5928
1727.24	68.5895
1729.54	72.2722
1731.84	65.899
1734.15	71.6515
1736.45	70.622
1738.75	68.0881
1741.05	72.0866
1743.35	66.5651
1745.64	63.5922
1747.94	68.3924
1750.23	65.3392
1752.53	67.5143
1754.82	68.0887
1757.11	63.8894
1759.4	66.2394
1761.69	66.6259
1763.98	64.6402
1766.27	67.5285
1768.56	63.1283
1770.84	66.4268
1773.13	62.2347
1775.41	66.6186
1777.69	57.6243
1779.97	62.8794
1782.25	65.0611
1784.53	60.8479
1786.81	60.4205
1789.09	57.7874
1791.36	59.7387
1793.64	61.4141
1795.91	59.8145
1798.18	59.2629
1800.46	63.3328
1802.73	55.732
1805	57.1799
1807.27	60.6479
1809.53	51.0986
1811.8	61.8304
1814.07	55.8952
1816.33	57.3799
1818.59	54.0354
1820.86	57.1739
1823.12	56.2312
1825.38	56.6454
1827.64	57.7053
1829.89	53.4217
1832.15	54.3121
1834.41	54.3781
1836.66	58.0939
1838.92	55.1685
1841.17	60.7331
1843.42	58.5622
1845.67	55.1207
1847.92	56.0845
1850.17	51.9246
1852.42	54.6844
1854.67	56.6426
1856.91	55.4661
1859.16	52.821
1861.4	52.1571
1863.64	53.7653
1865.88	54.7917
1868.12	54.2615
1870.36	51.1466
1872.6	55.3802
1874.84	53.6198
1877.08	53.3505
1879.31	53.4523
1881.54	51.0663
1883.78	53.954
1886.01	56.5101
1888.24	49.8952
1890.47	50.0668
1892.7	51.9014
1894.93	51.1957
1897.16	53.6527
1899.38	52.1248
1901.61	52.8186
1903.83	53.1852
1906.05	48.1296
1908.28	48.2177
1910.5	51.2566
1912.72	52.1827
1914.94	52.7135
1917.16	51.5639
1919.37	52.6714
1921.59	48.0025
1923.8	49.5189
1926.02	54.1992
1928.23	51.7646
1930.44	47.9464
1932.65	52.2384
1934.86	49.9901
1937.07	52.2576
1939.28	49.5416
1941.48	48.7424
1943.69	48.0628
1945.9	48.4022
1948.1	48.5862
1950.3	44.2097
1952.5	42.5613
1954.7	52.8251
1956.9	52.4804
1959.1	45.1101
1961.3	46.8937
1963.5	44.4272
1965.69	46.9534
1967.89	45.6312
1970.08	42.9109
1972.27	44.4872
1974.46	49.7611
1976.66	48.7062
1978.84	46.5368
1981.03	44.205
1983.22	42.2758
1985.41	43.3726
1987.59	39.5132
1989.78	40.6171
1991.96	43.679
1994.14	43.4824
1996.32	41.63
1998.51	40.901
2000.69	40.6401
2002.86	38.2521
2005.04	39.1795
2007.22	41.4095
2009.39	38.1559
2011.57	39.7653
2013.74	39.5113
2015.91	41.5968
2018.09	39.9792
2020.26	41.0354
2022.43	39.7292
2024.59	40.1807
2026.76	37.9531
2028.93	37.8205
2031.09	41.5816
2033.26	32.7033
2035.42	37.1549
2037.59	39.5639
2039.75	40.0796
2041.91	35.5364
2044.07	37.7626
2046.23	34.3725
2048.38	34.4232
2050.54	34.6788
2052.7	31.795
2054.85	32.2938
2057	34.8947
2059.16	34.1696
2061.31	33.1698
2063.46	34.3103
2065.61	34.9316
2067.76	35.5457
2069.91	31.9823
2072.05	31.6838
2074.2	29.9073
2076.34	33.063
2078.49	30.8623
2080.63	32.649
2082.77	34.6832
2084.91	30.9046
2087.05	29.0622
2089.19	31.0407
2091.33	31.3799
2093.47	29.1466
2095.6	28.4706
2097.74	32.0122
2099.87	30.1725
2102.01	32.2807
2104.14	27.1455
2106.27	31.8097
2108.4	31.2224
2110.53	32.4251
2112.66	31.8436
2114.79	28.6697
2116.91	30.0177
2119.04	31.8024
2121.16	31.5947
2123.29	29.1908
2125.41	29.4032
2127.53	27.6746
2129.65	32.1696
2131.77	30.321
2133.89	31.0934
2136.01	29.2807
2138.12	29.3964
2140.24	29.937
2142.35	30.7639
2144.47	29.7318
2146.58	27.6395
2148.69	30.2536
2150.8	26.1503
2152.91	30.201
2155.02	26.2305
2157.13	30.1721
2159.24	27.228
2161.34	28.3174
2163.45	29.0959
2165.55	27.3761
2167.66	28.5857
2169.76	39.5947
2171.86	26.8988
2173.96	29.1503
2176.06	27.6763
2178.16	28.2792
2180.26	29.036
2182.35	29.7276
2184.45	29.1028
2186.54	29.0173
2188.64	25.4358
2190.73	26.535
2192.82	28.7533
2194.91	25.5727
2197	28.7021
2199.09	27.5416
2201.18	28.494
2203.27	27.3199
2205.35	27.6416
2207.44	26.7841
2209.52	25.7355
2211.61	28.5945
2213.69	25.7565
2215.77	26.347
2217.85	27.7565
2219.93	29.8477
2222.01	23.2906
2224.09	25.4251
2226.16	26.5624
2228.24	26.7026
2230.31	22.2921
2232.39	25.4386
2234.46	23.9593
2236.53	21.649
2238.6	24.8367
2240.67	24.4657
2242.74	25.431
2244.81	26.7861
2246.88	24.254
2248.94	25.265
2251.01	22.6534
2253.07	23.9284
2255.14	24.99
2257.2	19.8486
2259.26	26.0432
2261.32	26.9301
2263.38	24.094
2265.44	21.5603
2267.5	24.821
2269.56	22.906
2271.61	24.9807
2273.67	22.6714
2275.72	24.4566
2277.78	24.3432
2279.83	23.8137
2281.88	23.5431
2283.93	24.2615
2285.98	29.151
2288.03	29.7242
2290.08	26.4616
2292.12	26.1852
2294.17	23.8389
2296.21	22.84
2298.26	24.9026
2300.3	19.2347
2302.34	26.7297
2304.38	23.7808
2306.42	21.4616
2308.46	20.203
2310.5	21.7254
2312.54	23.5153
2314.58	20.0273
2316.61	17.6981
2318.65	20.7601
2320.68	23.7553
2322.71	18.6762
2324.75	20.7768
2326.78	22.9577
2328.81	20.4232
2330.84	23.3647
2332.86	16.1445
2334.89	22.8056
2336.92	21.2614
2338.94	22.6165
2340.97	21.399
2342.99	22.141
2345.02	22.205
2347.04	21.6948
2349.06	19.6272
2351.08	19.1739
2353.1	19.6657
2355.12	16.3834
2357.13	18.2473
2359.15	19.1721
2361.17	18.694
2363.18	23.7527
2365.19	22.3455
2367.21	23.853
2369.22	18.0059
2371.23	20.675
2373.24	19.1466
2375.25	21.9014
2377.26	19.396
2379.27	21.0627
2381.27	19.7626
2383.28	21.3668
2385.28	19.5094
2387.29	24.31
2389.29	20.0921
2391.29	19.9863
2393.29	16.6844
2395.29	18.7193
2397.29	18.7371
2399.29	19.298
2401.29	18.4617
2403.28	17.7937
2405.28	21.9415
2407.27	17.6724
2409.27	18.7585
2411.26	16.5383
2413.25	20.2847
2415.25	18.4386
2417.24	16.1483
2419.22	19.0939
2421.21	18.7069
2423.2	16.3381
2425.19	19.1235
2427.17	17.9263
2429.16	16.9297
2431.14	17.6798
2433.13	15.6165
2435.11	18.6608
2437.09	18.9478
2439.07	18.759
2441.05	19.0589
2443.03	19.758
2445.01	19.6082
2446.98	19.2625
2448.96	22.4454
2450.93	18.5958
2452.91	24.7355
2454.88	22.9499
2456.85	20.4052
2458.83	19.6177
2460.8	19.6243
2462.77	21.5399
2464.74	18.1778
2466.7	18.6184
2468.67	19.7591
2470.64	20.6317
2472.6	16.7719
2474.57	17.9321
2476.53	19.6209
2478.49	19.1501
2480.46	17.6433
2482.42	17.3234
2484.38	17.6181
2486.34	18.9405
2488.29	20.0688
2490.25	20.6948
2492.21	23.3465
2494.16	20.369
2496.12	20.1248
2498.07	21.0452
2500.03	19.6532
2501.98	19.2688
2503.93	18.4961
2505.88	22.7864
2507.83	21.6495
2509.78	26.4503
2511.73	30.4617
2513.67	36.1628
2515.62	28.9901
2517.56	28.7903
2519.51	22.431
2521.45	18.061
2523.4	20.7318
2525.34	19.4204
2527.28	19.3069
2529.22	19.9829
2531.16	18.1233
2533.1	22.2378
2535.03	21.9459
2536.97	20.8843
2538.91	22.733
2540.84	21.759
2542.77	18.9729
2544.71	17.906
2546.64	19.8972
2548.57	17.0043
2550.5	18.1199
2552.43	16.6532
2554.36	19.2923
2556.29	16.5035
2558.21	15.3458
2560.14	13.6082
2562.07	13.0534
2563.99	16.8347
2565.91	14.7897
2567.84	14.9284
2569.76	15.509
2571.68	13.9499
2573.6	15.7041
2575.52	12.6454
2577.44	14.7809
2579.36	11.1685
2581.27	13.3563
2583.19	14.737
2585.1	17.2931
2587.02	14.0668
2588.93	10.9511
2590.84	12.9537
2592.75	13.9907
2594.67	14.0699
2596.58	14.5241
2598.48	15.6254
2600.39	16.2693
