105.443	6109.36
108.528	5476.08
111.612	4845.89
114.693	4242.01
117.774	3687.46
120.854	3244.63
123.931	2829.1
127.007	2494.08
130.081	2193.31
133.155	1929.1
136.226	1710.32
139.296	1516.71
142.364	1335.45
145.431	1181.61
148.496	1050.45
151.559	935.2
154.622	846.008
157.682	756.295
160.741	686.539
163.799	608.851
166.855	553.575
169.91	504.488
172.963	453.516
176.014	408.993
179.064	374.714
182.113	352.564
185.16	330.255
188.205	298.992
191.249	280.56
194.291	249.558
197.333	243.568
200.372	228.989
203.409	215.748
206.446	200.466
209.48	198.6
212.514	179.102
215.546	165.607
218.577	163.285
221.605	156.992
224.633	148.396
227.658	149.558
230.682	142.063
233.706	130.476
236.727	130.433
239.747	131.244
242.765	126.213
245.782	125.322
248.797	117.729
251.811	116.1
254.823	112.232
257.834	119.086
260.844	109.094
263.852	112.391
266.858	113.236
269.863	106.112
272.866	105.05
275.868	111.496
278.869	105.558
281.867	109.773
284.865	106.197
287.861	111.404
290.856	110.799
293.848	105.601
296.84	101.272
299.83	104.854
302.819	107.851
305.806	105.409
308.791	104.547
311.775	104.676
314.758	102.558
317.739	104.994
320.719	102.572
323.697	102.773
326.674	107.225
329.649	104.148
332.623	111.016
335.595	104.991
338.566	102.365
341.535	104.95
344.504	101.305
347.47	102.784
350.434	102.777
353.399	101.119
356.36	100.586
359.321	101.823
362.281	101.501
365.238	106.624
368.194	105.337
371.149	96.2801
374.102	102.341
377.054	106.63
380.005	111.753
382.954	113.381
385.901	122.591
388.847	126.962
391.792	124.792
394.735	128.721
397.676	130.378
400.617	125.365
403.555	118.133
406.493	111.045
409.429	106.66
412.363	104.281
415.297	104.715
418.228	106.802
421.158	98.4097
424.087	92.5684
427.014	103.114
429.94	94.2567
432.864	96.5423
435.787	92.2132
438.709	91.5524
441.629	94.8091
444.547	91.3346
447.464	88.551
450.38	88.6926
453.294	89.2191
456.208	82.9479
459.119	84.0711
462.028	80.5323
464.938	82.7678
467.844	76.4744
470.75	80.3371
473.654	83.4261
476.557	78.9516
479.459	79.8835
482.359	75.8902
485.257	77.0982
488.154	77.8128
491.05	78.0742
493.945	81.9744
496.838	81.4508
499.729	79.4849
502.619	78.6197
505.508	74.4039
508.395	73.5884
511.281	77.459
514.165	78.2041
517.049	77.1763
519.93	76.7746
522.81	76.6869
525.689	73.897
528.566	75.9704
531.442	78.9481
534.317	75.9331
537.19	80.1276
540.062	77.5669
542.932	76.9103
545.801	79.0605
548.669	81.9481
551.534	79.7988
554.399	82.2604
557.262	80.9803
560.124	89.5732
562.985	91.6007
565.844	88.1653
568.702	94.7319
571.558	96.0728
574.413	108.276
577.266	113.532
580.118	127.454
582.969	147.439
585.819	183.154
588.666	241.086
591.513	342.112
594.359	538.988
597.202	747.317
600.045	774.449
602.885	593.78
605.725	395.01
608.564	274.021
611.4	202.16
614.236	154.158
617.07	134.356
619.902	124.562
622.734	107.933
625.564	101.923
628.393	94.9366
631.219	94.2551
634.045	90.8393
636.87	88.3699
639.693	87.3662
642.515	87.0196
645.335	86.234
648.153	81.4986
650.971	81.5766
653.787	77.8219
656.602	77.8319
659.416	83.6335
662.228	84.8785
665.038	89.4658
667.848	87.9886
670.655	84.7578
673.462	87.205
676.268	85.5415
679.071	84.3906
681.874	84.6349
684.675	74.4563
687.475	76.0013
690.273	75.3799
693.07	76.9253
695.866	72.2191
698.66	76.3561
701.453	72.5493
704.244	73.9017
707.035	71.8229
709.824	72.6966
712.612	68.6319
715.397	72.7543
718.183	70.2304
720.966	70.714
723.748	70.8241
726.529	71.0756
729.308	70.5224
732.087	69.0292
734.863	72.0238
737.639	70.969
740.413	72.4212
743.186	71.5224
745.956	73.873
748.726	69.174
751.495	73.1853
754.262	72.2979
757.029	74.6335
759.793	74.1763
762.557	71.6349
765.318	73.816
768.079	75.2503
770.839	80.5222
773.597	77.7842
776.353	84.2068
779.109	83.3206
781.862	85.1366
784.615	92.2376
787.366	93.2537
790.116	109.295
792.865	115.755
795.612	108.317
798.358	103.871
801.102	95.6762
803.846	89.2873
806.588	82.3512
809.329	83.8243
812.068	91.9103
814.806	91.2536
817.542	89.9707
820.278	84.9389
823.012	101.944
825.744	102.3
828.476	113.155
831.206	115.432
833.935	125.863
836.662	149.642
839.388	156.132
842.113	159.296
844.836	148.989
847.558	135.449
850.279	114.447
852.999	99.4896
855.718	95.6097
858.435	85.3083
861.15	82.9066
863.865	75.8107
866.577	78.9285
869.289	71.2627
871.999	72.7257
874.709	74.852
877.417	73.3001
880.123	71.8902
882.828	69.8953
885.531	74.4668
888.234	75.05
890.936	68.5769
893.635	72.0592
896.334	67.8128
899.031	65.8405
901.728	73.1476
904.422	67.2214
907.116	72.1577
909.808	67.4699
912.499	73.5906
915.188	69.2039
917.877	75.7637
920.563	76.1552
923.249	80.9003
925.934	77.5916
928.617	80.8706
931.298	97.5096
933.979	91.3834
936.658	87.4345
939.336	79.5409
942.013	91.2779
944.688	94.3785
947.362	92.4008
950.035	102.359
952.706	103.257
955.377	117.657
958.045	136.59
960.714	163.826
963.38	213.581
966.044	299.175
968.709	480.218
971.372	781.769
974.033	1185.03
976.693	1618.75
979.351	2663.86
982.009	6803.57
984.665	11051.7
987.32	7757.98
989.974	4160.41
992.626	2107.58
995.277	999.458
997.926	552.408
1000.57	355.535
1003.22	236.882
1005.87	173.378
1008.51	142.531
1011.16	132.617
1013.8	111.866
1016.44	111.859
1019.08	104.886
1021.72	104.108
1024.35	100.029
1026.99	98.5651
1029.63	96.016
1032.26	97.5901
1034.89	88.1138
1037.52	84.5146
1040.15	85.2806
1042.78	80.6926
1045.41	80.7746
1048.03	83.5256
1050.66	80.8557
1053.28	77.1239
1055.9	80.9653
1058.52	81.6846
1061.14	80.0442
1063.76	75.7531
1066.38	80.9202
1068.99	82.6183
1071.61	85.2122
1074.22	84.3498
1076.83	82.2627
1079.44	84.8872
1082.05	82.2191
1084.66	81.5028
1087.27	76.6584
1089.87	77.295
1092.48	75.9202
1095.08	79.5684
1097.68	76.2282
1100.29	78.0855
1102.88	75.688
1105.48	78.5245
1108.08	80.7107
1110.68	80.0028
1113.27	82.7645
1115.86	84.5222
1118.46	85.0442
1121.05	84.5974
1123.64	88.3233
1126.23	92.6844
1128.81	98.2933
1131.4	97.353
1133.98	108.38
1136.57	111.818
1139.15	118.05
1141.73	129.084
1144.31	132.212
1146.89	138.602
1149.47	148.14
1152.04	165.326
1154.62	187.031
1157.19	218.285
1159.76	277.16
1162.33	369.199
1164.9	470.935
1167.47	606.544
1170.04	646.263
1172.61	608.652
1175.17	493.51
1177.74	379.95
1180.3	294.254
1182.86	226.502
1185.42	193.016
1187.98	160.829
1190.54	137.558
1193.09	123.763
1195.65	121.55
1198.2	109.987
1200.76	109.32
1203.31	97.6183
1205.86	99.801
1208.41	91.4112
1210.96	95.4626
1213.5	89.2722
1216.05	83.4947
1218.59	87.4572
1221.14	85.897
1223.68	81.3233
1226.22	84.1288
1228.76	82.1972
1231.3	81.9414
1233.84	77.6183
1236.37	87.0275
1238.91	77.7988
1241.44	80.8109
1243.97	85.4482
1246.5	84.8826
1249.03	80.351
1251.56	86.7159
1254.09	87.3775
1256.62	79.0879
1259.14	82.0337
1261.67	79.235
1264.19	81.6335
1266.71	82.5855
1269.23	79.6494
1271.75	85.8505
1274.27	81.8775
1276.78	85.913
1279.3	82.668
1281.81	87.6349
1284.33	84.9054
1286.84	86.4604
1289.35	86.144
1291.86	91.1057
1294.37	82.9184
1296.88	85.7769
1299.38	87.0728
1301.89	88.5487
1304.39	89.6283
1306.89	89.4134
1309.4	91.9854
1311.9	93.6657
1314.4	97.4795
1316.89	90.7791
1319.39	87.843
1321.89	91.6553
1324.38	93.4896
1326.87	93.3799
1329.37	100.114
1331.86	102.606
1334.35	99.2108
1336.83	97.1738
1339.32	106.754
1341.81	107.092
1344.29	101.365
1346.78	105.581
1349.26	108.635
1351.74	113.002
1354.22	105.645
1356.7	110.212
1359.18	114.047
1361.65	111.184
1364.13	114.923
1366.6	109.092
1369.08	104.936
1371.55	103.269
1374.02	106.984
1376.49	107.363
1378.96	105.829
1381.43	111.809
1383.89	108.383
1386.36	109.718
1388.82	114.883
1391.28	112.491
1393.75	116.146
1396.21	127.703
1398.67	130.188
1401.12	124.1
1403.58	114.925
1406.04	113.415
1408.49	106.925
1410.95	108.545
1413.4	108.531
1415.85	105.454
1418.3	104.525
1420.75	104.059
1423.2	100.317
1425.64	105.074
1428.09	104.84
1430.53	104.673
1432.97	104.346
1435.42	97.3429
1437.86	98.797
1440.3	100.764
1442.74	105.919
1445.17	106.279
1447.61	103.718
1450.05	100.797
1452.48	99.4399
1454.91	104.791
1457.34	105.616
1459.77	104.781
1462.2	99.2947
1464.63	107.219
1467.06	108.938
1469.48	101.266
1471.91	101.886
1474.33	107.747
1476.76	105.345
1479.18	99.3926
1481.6	100.304
1484.02	99.1838
1486.44	98.9594
1488.85	98.7423
1491.27	99.5718
1493.68	101.641
1496.1	96.9039
1498.51	96.4526
1500.92	91.9068
1503.33	95.6959
1505.74	94.0855
1508.15	97.4658
1510.55	98.7504
1512.96	93.7729
1515.36	94.6895
1517.77	95.4472
1520.17	99.5035
1522.57	96.6058
1524.97	100.9
1527.37	100.146
1529.77	99.3187
1532.16	100.026
1534.56	99.8756
1536.95	104.102
1539.35	104.408
1541.74	105.886
1544.13	113.106
1546.52	110.43
1548.91	110.024
1551.3	120.796
1553.68	113.882
1556.07	129.856
1558.45	131.215
1560.84	137.044
1563.22	142.61
1565.6	167.378
1567.98	187.682
1570.36	210.246
1572.74	245.269
1575.11	300.27
1577.49	344.893
1579.86	370.685
1582.24	350.051
1584.61	308.956
1586.98	266.773
1589.35	237.093
1591.72	221.967
1594.08	234.608
1596.45	261.98
1598.82	292.538
1601.18	292.881
1603.54	259.05
1605.91	222.814
1608.27	194.814
1610.63	169.529
1612.99	149.873
1615.34	136.864
1617.7	126.739
1620.06	117.637
1622.41	114.254
1624.76	110.215
1627.12	106.178
1629.47	101.562
1631.82	94.8243
1634.17	98.1822
1636.51	94.7746
1638.86	92.2166
1641.21	87.0869
1643.55	85.6244
1645.9	88.7428
1648.24	87.801
1650.58	86.5487
1652.92	81.0691
1655.26	80.2688
1657.6	80.8691
1659.93	84.4623
1662.27	78.5996
1664.6	81.4795
1666.94	71.4112
1669.27	78.3277
1671.6	77.5783
1673.93	77.7573
1676.26	76.4773
1678.59	75.4782
1680.92	75.5583
1683.24	76.7597
1685.57	80.8368
1687.89	75.5319
1690.22	77.8917
1692.54	75.6762
1694.86	77.8984
1697.18	81.9577
1699.5	77.6434
1701.81	77.5155
1704.13	78.2801
1706.45	80.4809
1708.76	76.3834
1711.07	75.7431
1713.38	71.5637
1715.7	69.4112
1718.01	63.9746
1720.31	66.7445
1722.62	73.8571
1724.93	67.7837
1727.24	69.2764
1729.54	70.199
1731.84	69.2463
1734.15	67.6175
1736.45	64.816
1738.75	65.8822
1741.05	62.8037
1743.35	66.5524
1745.64	66.6553
1747.94	68.0795
1750.23	66.2191
1752.53	66.9577
1754.82	62.4672
1757.11	66.9682
1759.4	62.536
1761.69	65.3038
1763.98	67.6329
1766.27	68.7783
1768.56	64.4545
1770.84	61.2587
1773.13	58.6183
1775.41	66.0727
1777.69	61.0329
1779.97	57.6148
1782.25	63.0742
1784.53	58.6283
1786.81	59.3547
1789.09	63.6034
1791.36	61.6021
1793.64	62.6885
1795.91	56.5187
1798.18	61.3001
1800.46	56.9112
1802.73	61.4436
1805	57.7027
1807.27	59.7715
1809.53	55.9682
1811.8	58.1175
1814.07	55.4503
1816.33	55.9467
1818.59	57.4398
1820.86	54.7524
1823.12	56.5847
1825.38	55.4112
1827.64	53.1516
1829.89	55.8857
1832.15	55.1493
1834.41	55.7651
1836.66	55.499
1838.92	53.698
1841.17	53.4526
1843.42	53.5906
1845.67	52.9541
1847.92	54.4208
1850.17	51.6485
1852.42	57.3902
1854.67	49.8319
1856.91	50.9119
1859.16	55.1563
1861.4	53.6844
1863.64	52.6635
1865.88	53.7181
1868.12	54.4885
1870.36	52.1225
1872.6	51.4572
1874.84	49.7445
1877.08	49.7409
1879.31	50.8405
1881.54	49.2191
1883.78	51.0128
1886.01	49.6762
1888.24	49.2837
1890.47	51.3775
1892.7	49.7858
1894.93	51.5769
1897.16	50.5097
1899.38	48.9848
1901.61	50.7582
1903.83	52.4959
1906.05	50.8615
1908.28	47.1817
1910.5	52.2874
1912.72	48.6425
1914.94	48.9048
1917.16	48.2964
1919.37	51.2159
1921.59	47.4298
1923.8	48.9526
1926.02	48.1853
1928.23	50.852
1930.44	52.1029
1932.65	48.3138
1934.86	47.7017
1937.07	46.6612
1939.28	47.1288
1941.48	45.3679
1943.69	45.4626
1945.9	47.746
1948.1	46.1349
1950.3	47.9043
1952.5	43.8927
1954.7	44.0641
1956.9	46.751
1959.1	40.9144
1961.3	40.6434
1963.5	39.3101
1965.69	43.235
1967.89	40.9991
1970.08	45.2536
1972.27	43.4959
1974.46	43.8762
1976.66	44.2652
1978.84	41.4376
1981.03	42.4202
1983.22	48.0742
1985.41	40.8789
1987.59	42.8292
1989.78	44.8393
1991.96	42.6694
1994.14	41.3579
1996.32	40.6471
1998.51	36.6748
2000.69	39.0232
2002.86	40.5801
2005.04	39.035
2007.22	42.8916
2009.39	40.9886
2011.57	38.8033
2013.74	37.9204
2015.91	40.4572
2018.09	42.2604
2020.26	40.4202
2022.43	40.9805
2024.59	37.0514
2026.76	39.3926
2028.93	36.8143
2031.09	40.2032
2033.26	37.4531
2035.42	36.7536
2037.59	38.6731
2039.75	34.6964
2041.91	36.8001
2044.07	32.0869
2046.23	32.6762
2048.38	35.1462
2050.54	37.0165
2052.7	32.5086
2054.85	36.3498
2057	33.6705
2059.16	34.8091
2061.31	29.0928
2063.46	33.4396
2065.61	32.7732
2067.76	32.8916
2069.91	30.572
2072.05	33.3648
2074.2	33.1611
2076.34	35.7132
2078.49	31.9121
2080.63	31.0218
2082.77	31.1752
2084.91	33.551
2087.05	30.7805
2089.19	32.6995
2091.33	34.2177
2093.47	27.406
2095.6	32.3588
2097.74	29.0118
2099.87	30.0441
2102.01	33.0059
2104.14	29.3679
2106.27	32.5884
2108.4	32.5757
2110.53	26.8635
2112.66	30.2228
2114.79	29.7482
2116.91	28.7318
2119.04	25.6319
2121.16	31.0064
2123.29	28.1476
2125.41	27.4298
2127.53	29.2864
2129.65	31.0373
2131.77	31.2249
2133.89	26.9257
2136.01	29.4191
2138.12	27.8356
2140.24	26.5456
2142.35	24.9954
2144.47	27.279
2146.58	22.6011
2148.69	27.2385
2150.8	25.2027
2152.91	26.8091
2155.02	28.2695
2157.13	28.6731
2159.24	27.2801
2161.34	25.396
2163.45	27.2837
2165.55	27.6832
2167.66	29.2365
2169.76	39.1574
2171.86	26.7259
2173.96	28.4886
2176.06	29.0228
2178.16	27.4345
2180.26	27.5732
2182.35	33.3631
2184.45	28.0465
2186.54	30.3588
2188.64	24.9467
2190.73	28.0292
2192.82	25.2318
2194.91	23.0578
2197	26.9271
2199.09	23.7678
2201.18	23.837
2203.27	23.9403
2205.35	24.0329
2207.44	25.6846
2209.52	26.5769
2211.61	27.315
2213.69	24.1102
2215.77	24.1366
2217.85	24.8255
2219.93	26.7858
2222.01	24.8278
2224.09	23.6832
2226.16	23.1853
2228.24	22.7181
2230.31	23.607
2232.39	24.5302
2234.46	23.7132
2236.53	22.5583
2238.6	25.9454
2240.67	23.479
2242.74	23.843
2244.81	21.7859
2246.88	23.0742
2248.94	25.0278
2251.01	24.4945
2253.07	20.7035
2255.14	20.6247
2257.2	17.9376
2259.26	24.2212
2261.32	23.2674
2263.38	22.9054
2265.44	20.6056
2267.5	21.8091
2269.56	22.0382
2271.61	21.5187
2273.67	19.3087
2275.72	21.1752
2277.78	22.0728
2279.83	21.5374
2281.88	23.8107
2283.93	23.1927
2285.98	22.6207
2288.03	24.8789
2290.08	25.3588
2292.12	26.6981
2294.17	23.3571
2296.21	22.5684
2298.26	20.351
2300.3	20.2646
2302.34	23.8757
2304.38	24.6283
2306.42	20.1889
2308.46	21.9768
2310.5	24.4885
2312.54	20.0128
2314.58	19.7836
2316.61	20.5884
2318.65	21.4191
2320.68	20.897
2322.71	18.27
2324.75	18.9112
2326.78	16.4986
2328.81	20.1292
2330.84	21.2947
2332.86	20.4563
2334.89	20.2537
2336.92	19.6618
2338.94	21.2041
2340.97	20.0314
2342.99	21.2477
2345.02	21.3547
2347.04	20.9017
2349.06	21.1867
2351.08	20.0652
2353.1	19.938
2355.12	19.9389
2357.13	19.3949
2359.15	15.3985
2361.17	18.9954
2363.18	20.0064
2365.19	21.3074
2367.21	21.643
2369.22	16.9557
2371.23	19.9232
2373.24	21.8255
2375.25	19.6019
2377.26	18.9481
2379.27	17.3834
2381.27	19.0095
2383.28	19.0905
2385.28	18.0779
2387.29	22.0879
2389.29	17.9276
2391.29	14.4508
2393.29	17.5023
2395.29	16.899
2397.29	19.0705
2399.29	17.8571
2401.29	17.2964
2403.28	16.1276
2405.28	16.7257
2407.27	16.2272
2409.27	16.3219
2411.26	20.3101
2413.25	15.4382
2415.25	20.3738
2417.24	14.7017
2419.22	17.2587
2421.21	16.7782
2423.2	16.6795
2425.19	14.2039
2427.17	18.0128
2429.16	13.4472
2431.14	15.6047
2433.13	17.1738
2435.11	17.7445
2437.09	15.2401
2439.07	16.0727
2441.05	15.3496
2443.03	19.1822
2445.01	18.8243
2446.98	20.1011
2448.96	22.5314
2450.93	25.4399
2452.91	23.848
2454.88	20.5086
2456.85	18.0879
2458.83	17.7746
2460.8	20.0762
2462.77	17.5222
2464.74	15.05
2466.7	16.746
2468.67	18.4382
2470.64	16.8505
2472.6	17.8243
2474.57	16.8762
2476.53	17.0728
2478.49	16.6846
2480.46	15.1516
2482.42	16.6207
2484.38	16.005
2486.34	16.9329
2488.29	20.5224
2490.25	20.2282
2492.21	22.5855
2494.16	24.4345
2496.12	23.2118
2498.07	20.0027
2500.03	16.3785
2501.98	17.4261
2503.93	17.3848
2505.88	19.0584
2507.83	18.9749
2509.78	24.6604
2511.73	34.3091
2513.67	38.0074
2515.62	28.7223
2517.56	28.0865
2519.51	22.0382
2521.45	19.4759
2523.4	19.1115
2525.34	19.0514
2527.28	19.8033
2529.22	14.6695
2531.16	20.3429
2533.1	19.816
2535.03	18.8757
2536.97	17.291
2538.91	21.9202
2540.84	22.5701
2542.77	23.6081
2544.71	20.0405
2546.64	19.6904
2548.57	14.2964
2550.5	16.4171
2552.43	15.5546
2554.36	17.5906
2556.29	14.9066
2558.21	14.2849
2560.14	15.6649
2562.07	15.4261
2563.99	13.5997
2565.91	12.9294
2567.84	13.9144
2569.76	12.0879
2571.68	11.7594
2573.6	16.0138
2575.52	13.7294
2577.44	13.6171
2579.36	11.943
2581.27	14.592
2583.19	12.837
2585.1	14.5224
2587.02	11.1853
2588.93	12.6846
2590.84	13.9144
2592.75	12.2191
2594.67	14.1763
2596.58	12.3287
2598.48	11.0095
2600.39	13.8542
