400,17551.08
401,17393.49
402,17251.68
403,17149.53
404,17072.63
405,16993.96
406,16888.18
407,16756.98
408,16627.07
409,16525.7
410,16464.41
411,16415.54
412,16345.67
413,16227.71
414,16080.37
415,15943.42
416,15855.31
417,15822.58
418,15812.69
419,15791.13
420,15737.22
421,15676.24
422,15642.82
423,15667.74
424,15745.07
425,15847.08
426,15946.29
427,16026.4
428,16088.07
429,16133.42
430,16165.19
431,16188.97
432,16211.02
433,16236.73
434,16259.88
435,16266.08
436,16241.03
437,16182.08
438,16107.55
439,16037.8
440,15987.75
441,15946.29
442,15894.31
443,15814.38
444,15712.29
445,15612.57
446,15539.88
447,15505.39
448,15493.34
449,15484.92
450,15463.3
451,15421.34
452,15355.27
453,15262.08
454,15151.34
455,15043.38
456,14958.59
457,14904.36
458,14861.1
459,14806.02
460,14721.9
461,14621.26
462,14526.9
463,14459.9
464,14415.82
465,14368.32
466,14290.8
467,14173.35
468,14040.02
469,13918.81
470,13832.21
471,13774.89
472,13732.32
473,13690.6
474,13643.5
475,13590.95
476,13533.09
477,13471.36
478,13409.71
479,13352.31
480,13302.9
481,13263.33
482,13234.93
483,13218.45
484,13207.72
485,13191.56
486,13158.95
487,13105.75
488,13039.02
489,12966.77
490,12895.05
491,12822.33
492,12745.22
493,12660.63
494,12568.39
495,12470.06
496,12367.2
497,12260.9
498,12151.63
499,12039.8
500,11925.66
501,11808.92
502,11689.2
503,11566.04
504,11438.25
505,11304.33
506,11163.07
507,11019.93
508,10887.29
509,10777.67
510,10696.25
511,10631.51
512,10569.72
513,10499.67
514,10423.07
515,10346.04
516,10274.19
517,10206.77
518,10138.27
519,10063.17
520,9980.301
521,9895.497
522,9815.161
523,9742.676
524,9670.552
525,9588.915
526,9489.984
527,9383.6
528,9288.613
529,9223.078
530,9186.329
531,9157.43
532,9114.674
533,9046.96
534,8967.341
535,8892.13
536,8834.374
537,8790.799
538,8752.881
539,8712.599
540,8667.432
541,8618.685
542,8567.779
543,8519.043
544,8480.906
545,8462.03
546,8464.891
547,8473.624
548,8469.098
549,8435.628
550,8379.597
551,8316.358
552,8260.569
553,8216.88
554,8181.589
555,8150.794
556,8122.593
557,8098.383
558,8079.866
559,8068.132
560,8062.179
561,8060.565
562,8061.122
563,8056.062
564,8035.051
565,7988.63
566,7923.207
567,7859.605
568,7818.86
569,7808.49
570,7812.14
571,7811.141
572,7792.301
573,7761.967
574,7730.863
575,7708.206
576,7692.19
577,7675.881
578,7652.68
579,7621.997
580,7588.636
581,7557.54
582,7532.26
583,7514.01
584,7503.76
585,7501.193
586,7501.617
587,7499.458
588,7489.903
589,7473.194
590,7451.724
591,7428
592,7406.636
593,7393.928
594,7395.988
595,7408.669
596,7412.629
597,7387.437
598,7325.514
599,7255.322
600,7211.439
601,7220.065
602,7261.511
603,7300.282
604,7303.991
605,7274.573
606,7236.276
607,7212.994
608,7210.417
609,7212.911
610,7203.787
611,7174.986
612,7136.763
613,7101.656
614,7078.991
615,7065.344
616,7054.096
617,7039.477
618,7022.186
619,7005.968
620,6994.416
621,6988.367
622,6986.341
623,6986.783
624,6987.555
625,6985.644
626,6977.987
627,6963.784
628,6948.185
629,6937.271
630,6935.121
631,6936.079
632,6931.549
633,6914.131
634,6887.377
635,6860.807
636,6843.513
637,6835.372
638,6827.615
639,6811.301
640,6785.42
641,6761.612
642,6752.584
643,6764.995
644,6788.771
645,6811.001
646,6821.527
647,6823.708
648,6825.099
649,6832.259
650,6842.778
651,6849.393
652,6845.108
653,6828.353
654,6802.452
655,6770.879
656,6735.982
657,6698.461
658,6658.886
659,6619.408
660,6586.143
661,6565.794
662,6561.698
663,6562.758
664,6554.023
665,6523.282
666,6478.821
667,6438.298
668,6417.942
669,6413.532
670,6405.54
671,6374.724
672,6321.025
673,6267.33
674,6237.67
675,6241.091
676,6257.915
677,6265.273
678,6247.991
679,6215.036
680,6180.102
681,6154.428
682,6136.43
683,6120.303
684,6100.821
685,6077.914
686,6054.26
687,6032.485
688,6013.892
689,5998.685
690,5987.032
691,5979.149
692,5975.313
693,5975.795
694,5979.878
695,5984.857
696,5987.799
697,5986.456
698,5980.761
699,5971.076
700,5958.583
701,5948.688
702,5948.132
703,5962.107
704,5982.809
705,5995.932
706,5988.323
707,5964.058
708,5940.283
709,5933.948
710,5947.482
711,5966.871
712,5977.343
713,5972.313
714,5959.002
715,5945.953
716,5939.065
717,5937.519
718,5939.435
719,5943.015
720,5946.76
721,5949.243
722,5949.551
723,5949.898
724,5953.671
725,5963.521
726,5974.988
727,5979.632
728,5969.601
729,5947.256
730,5923.27
731,5908.315
732,5905.769
733,5910.483
734,5916.858
735,5920.702
736,5920.19
737,5913.73
738,5901.185
739,5885.938
740,5871.899
741,5862.543
742,5859.811
743,5865.295
744,5878.997
745,5892.494
746,5894.611
747,5876.521
748,5847.856
749,5826.974
750,5830.516
751,5853.808
752,5878.007
753,5884.855
754,5872.799
755,5855.65
756,5847.497
757,5851.643
758,5857.771
759,5854.78
760,5839.396
761,5821.942
762,5814.08
763,5821.93
764,5838.306
765,5854.059
766,5862.362
767,5864.19
768,5862.151
769,5858.623
770,5854.869
771,5851.83
772,5850.774
773,5855.154
774,5869.308
775,5896.765
776,5933.328
777,5970.541
778,6000.208
779,6018.588
780,6025.198
781,6019.86
782,6007.348
783,5997.221
784,5999.034
785,6014.604
786,6035.939
787,6054.466
788,6065.6
789,6071.366
790,6074.411
791,6076.804
792,6079.356
793,6082.714
794,6087.319
795,6092.996
796,6099.466
797,6106.176
798,6111.547
799,6113.753
800,6111.897
801,6109.737
802,6112.497
803,6124.589
804,6145.001
805,6170.509
806,6197.739
807,6222.181
808,6238.718
809,6242.894
810,6238.408
811,6234.353
812,6239.378
813,6252.865
814,6266.513
815,6272.123
816,6269.849
817,6268.456
818,6276.868
819,6294.765
820,6310.051
821,6310.03
822,6293.144
823,6275.334
824,6274.005
825,6294.734
826,6320.197
827,6330.443
828,6315.213
829,6287.406
830,6263.328
831,6254.149
832,6255.832
833,6261.549
834,6266.328
835,6272.002
836,6281.957
837,6296.951
838,6305.96
839,6294.639
840,6252.451
841,6189.984
842,6125.081
843,6073.237
844,6033.842
845,5999.628
846,5964.528
847,5932.782
848,5913.721
849,5916.107
850,5942.203
851,5990.477
852,6058.59
853,6134.642
854,6200.15
855,6237.48
856,6245.235
857,6235.022
858,6218.637
859,6203.714
860,6194.034
861,6192.793
862,6191.615
863,6169.751
864,6106.473
865,6004.051
866,5892.934
867,5804.968
868,5753.327
869,5725.046
870,5705.358
871,5691.164
872,5697.935
873,5742.676
874,5827.066
875,5925.102
876,6007.894
877,6059.375
878,6089.726
879,6112.328
880,6136.063
881,6159.415
882,6179.398
883,6193.808
884,6202.44
885,6205.416
886,6203.452
887,6198.998
888,6194.821
889,6193.046
890,6193.703
891,6196.405
892,6200.054
893,6201.026
894,6195.121
895,6181.124
896,6169.694
897,6174.479
898,6203.698
899,6241.772
900,6266.57
901,6261.596
902,6237.542
903,6213.262
904,6204.16
905,6207.425
906,6214.313
907,6217.393
908,6216.776
909,6215.223
910,6214.966
911,6214.953
912,6212.891
913,6206.964
914,6198.541
915,6190.265
916,6184.543
917,6182.007
918,6182.526
919,6185.51
920,6186.942
921,6181.259
922,6164.425
923,6144.592
924,6135.707
925,6149.349
926,6176.925
927,6199.847
928,6201.83
929,6187.66
930,6172.956
931,6171.979
932,6185.501
933,6207.132
934,6230.385
935,6248.649
936,6255.232
937,6244.806
938,6225.288
939,6212.023
940,6218.605
941,6240.13
942,6261.157
943,6267.538
944,6259.831
945,6247.085
946,6238.01
947,6236.585
948,6244.041
949,6261.048
950,6282.937
951,6301.895
952,6310.95
953,6312.272
954,6313.382
955,6320.852
956,6330.801
957,6333.259
958,6319.623
959,6296.061
960,6277.249
961,6276.481
962,6292.057
963,6313.75
964,6331.888
965,6343.343
966,6348.618
967,6348.241
968,6342.592
969,6331.968
970,6317.09
971,6302.445
972,6294.515
973,6298.747
974,6311.309
975,6323.628
976,6328.18
977,6326.621
978,6325.116
979,6329.053
980,6337.335
981,6345.82
982,6350.854
983,6352.696
984,6353.35
985,6354.563
986,6356.15
987,6357.106
988,6357.148
989,6360.741
990,6374.252
991,6402.699
992,6442.709
993,6487.744
994,6531.827
995,6572.274
996,6607.55
997,6636.06
998,6655.917
999,6665.137
1000,6663.041
1001,6655.257
1002,6649.321
1003,6650.683
1004,6655.559
1005,6657.594
1006,6651.376
1007,6638.857
1008,6625.416
1009,6616.402
1010,6616.689
1011,6630.961
1012,6662.671
1013,6707.942
1014,6760.218
1015,6812.066
1016,6851.751
1017,6866.135
1018,6848.86
1019,6823.504
1020,6821.95
1021,6864.242
1022,6925.563
1023,6970.446
1024,6976.656
1025,6964.727
1026,6963.812
1027,6992.161
1028,7038.125
1029,7084.986
1030,7119.795
1031,7138.4
1032,7137.926
1033,7122.459
1034,7109.644
1035,7118.515
1036,7152.057
1037,7186.851
1038,7197.391
1039,7177.943
1040,7150.081
1041,7136.942
1042,7146.895
1043,7171.228
1044,7200.411
1045,7228.108
1046,7251.066
1047,7266.552
1048,7278.232
1049,7294.866
1050,7324.219
1051,7360.491
1052,7389.019
1053,7396.943
1054,7389.244
1055,7380.352
1056,7383.26
1057,7400.158
1058,7428.662
1059,7464.27
1060,7491.255
1061,7490.108
1062,7450.404
1063,7399.729
1064,7375.625
1065,7401.047
1066,7451.9
1067,7494.623
1068,7508.415
1069,7504.25
1070,7497.92
1071,7500.421
1072,7513.48
1073,7537.731
1074,7571.705
1075,7610.77
1076,7650.058
1077,7685.573
1078,7714.336
1079,7733.811
1080,7748.943
1081,7771.359
1082,7811.883
1083,7867.757
1084,7926.906
1085,7978.811
1086,8028.43
1087,8088.766
1088,8169.822
1089,8262.314
1090,8349.499
1091,8418.946
1092,8477.826
1093,8538.817
1094,8608.756
1095,8675.534
1096,8723.231
1097,8742.889
1098,8741.843
1099,8729.726
1100,8713.341
1101,8694.673
1102,8675.208
1103,8654.934
1104,8631.991
1105,8604.671
1106,8576.515
1107,8555.835
1108,8550.625
1109,8562.673
1110,8589.699
1111,8628.315
1112,8667.2
1113,8691.282
1114,8691.039
1115,8686.207
1116,8706.08
1117,8765.802
1118,8830.174
1119,8852.854
1120,8812.449
1121,8747.896
1122,8706.785
1123,8710.315
1124,8735.613
1125,8755.971
1126,8756.83
1127,8737.768
1128,8699.382
1129,8646.009
1130,8585.01
1131,8523.975
1132,8471.682
1133,8437.569
1134,8427.821
1135,8428.919
1136,8420.007
1137,8388.078
1138,8350.628
1139,8332.501
1140,8347.165
1141,8379.589
1142,8410.454
1143,8429.169
1144,8439.548
1145,8446.641
1146,8452.228
1147,8454.492
1148,8451.86
1149,8448.719
1150,8453.813
1151,8474.298
1152,8503.647
1153,8528.772
1154,8539.35
1155,8538.72
1156,8534.366
1157,8530.733
1158,8523.204
1159,8505.536
1160,8478.783
1161,8457.655
1162,8457.848
1163,8477.39
1164,8493.104
1165,8482.32
1166,8449.321
1167,8419.149
1168,8413.842
1169,8426.378
1170,8435.626
1171,8426.368
1172,8411.798
1173,8413.471
1174,8442.402
1175,8480.197
1176,8503.495
1177,8501.166
1178,8482.764
1179,8459.716
1180,8439.979
1181,8427.872
1182,8426.727
1183,8430.314
1184,8426.22
1185,8404.993
1186,8376.586
1187,8358.479
1188,8362.968
1189,8383.827
1190,8410.719
1191,8435.397
1192,8453.931
1193,8463.097
1194,8466.142
1195,8474.224
1196,8497.888
1197,8532.263
1198,8561.166
1199,8571.518
1200,8574.032
1201,8589.618
1202,8631.503
1203,8683.378
1204,8721.952
1205,8736.496
1206,8742.969
1207,8760.266
1208,8790.719
1209,8816.405
1210,8820.224
1211,8812.747
1212,8824.242
1213,8878.332
1214,8952.343
1215,9005.027
1216,9010.896
1217,8998.871
1218,9009.327
1219,9055.969
1220,9102.785
1221,9109.919
1222,9078.362
1223,9051.98
1224,9072.018
1225,9131.129
1226,9193.332
1227,9229.403
1228,9246.464
1229,9263.123
1230,9290.117
1231,9317.642
1232,9332.745
1233,9330.658
1234,9318.106
1235,9302.91
1236,9296.279
1237,9312.043
1238,9359.85
1239,9420.663
1240,9463.583
1241,9469.893
1242,9461.486
1243,9468.49
1244,9503.26
1245,9547.807
1246,9581.881
1247,9599.639
1248,9608.386
1249,9615.889
1250,9629.658
1251,9657.084
1252,9700.83
1253,9745.56
1254,9771.771
1255,9773.188
1256,9768.438
1257,9778.15
1258,9805.834
1259,9838.239
1260,9862.716
1261,9877.731
1262,9887.363
1263,9894.702
1264,9898.865
1265,9898.027
1266,9894.328
1267,9897.335
1268,9916.677
1269,9945.879
1270,9963.157
1271,9950.01
1272,9918.989
1273,9897.458
1274,9904.185
1275,9926.93
1276,9946.65
1277,9951.604
1278,9942.347
1279,9921.026
1280,9896.657
1281,9884.015
1282,9895.246
1283,9923.993
1284,9956.382
1285,9980.239
1286,9988.428
1287,9975.021
1288,9947.429
1289,9931.392
1290,9951.193
1291,9997.003
1292,10036.18
1293,10043.17
1294,10029.42
1295,10017.69
1296,10020.49
1297,10028.2
1298,10028.72
1299,10020.66
1300,10013.5
1301,10015.94
1302,10026.67
1303,10039.58
1304,10050.13
1305,10059.04
1306,10068.09
1307,10075.26
1308,10072.95
1309,10054.57
1310,10031.39
1311,10026.96
1312,10056.86
1313,10097.01
1314,10111.52
1315,10086.09
1316,10050.29
1317,10037.42
1318,10049.83
1319,10061.35
1320,10048.66
1321,10014.3
1322,9971.391
1323,9933.352
1324,9914.344
1325,9927.938
1326,9965.884
1327,9994.461
1328,9983.032
1329,9940.458
1330,9895.995
1331,9871.768
1332,9865.379
1333,9869.252
1334,9874.045
1335,9867.917
1336,9840.47
1337,9798.813
1338,9760.8
1339,9736.86
1340,9707.372
1341,9645.623
1342,9547.454
1343,9444.715
1344,9370.35
1345,9330.474
1346,9312.835
1347,9305.638
1348,9300.686
1349,9290.813
1350,9271.652
1351,9243.666
1352,9208.082
1353,9170.152
1354,9138.052
1355,9119.363
1356,9118.694
1357,9139.7
1358,9177.777
1359,9213.852
1360,9229.03
1361,9226.807
1362,9226.883
1363,9243.556
1364,9265.185
1365,9273.041
1366,9262.204
1367,9251.065
1368,9258.594
1369,9282.675
1370,9306.772
1371,9318.495
1372,9323.74
1373,9333.016
1374,9350.752
1375,9372.054
1376,9391.391
1377,9404.895
1378,9409.724
1379,9403.438
1380,9385.001
1381,9353.797
1382,9313.704
1383,9274.549
1384,9245.367
1385,9224.747
1386,9205.896
1387,9184.9
1388,9166.304
1389,9155.82
1390,9149.344
1391,9132.162
1392,9092.702
1393,9043.698
1394,9007.759
1395,8997.625
1396,9003.938
1397,9014.84
1398,9026.916
1399,9043.817
1400,9066.472
1401,9081.639
1402,9072.068
1403,9038.081
1404,9008.86
1405,9013.228
1406,9047.013
1407,9085.88
1408,9111.395
1409,9125.542
1410,9134.42
1411,9141.007
1412,9144.688
1413,9143.602
1414,9128.783
1415,9088.396
1416,9024.103
1417,8966.807
1418,8948.743
1419,8964.799
1420,8980.947
1421,8970.632
1422,8941.426
1423,8909.671
1424,8887.744
1425,8882.575
1426,8898.922
1427,8927.153
1428,8950.708
1429,8958.912
1430,8955.553
1431,8946.808
1432,8942.854
1433,8957.22
1434,8998.482
1435,9052.978
1436,9101.072
1437,9129.55
1438,9134.186
1439,9113.397
1440,9081.305
1441,9059.485
1442,9059.966
1443,9072.411
1444,9083.862
1445,9089.675
1446,9091.693
1447,9091.584
1448,9089.62
1449,9085.782
1450,9081.822
1451,9081.648
1452,9087.495
1453,9089.797
1454,9074.353
1455,9038.884
1456,9003.728
1457,8989.495
1458,8991.971
1459,8991.514
1460,8974.032
1461,8942.411
1462,8902.802
1463,8864.937
1464,8841.843
1465,8840.987
1466,8844.173
1467,8826.471
1468,8783.942
1469,8740.606
1470,8718.655
1471,8714.6
1472,8714.221
1473,8708.123
1474,8696.109
1475,8679.136
1476,8659.494
1477,8640.279
1478,8624.645
1479,8615.882
1480,8616.634
1481,8618.547
1482,8604.37
1483,8563.068
1484,8507.637
1485,8456.295
1486,8418.191
1487,8392.738
1488,8378.521
1489,8372.366
1490,8370.484
1491,8366.115
1492,8348.381
1493,8309.649
1494,8266.345
1495,8244.662
1496,8254.889
1497,8279.139
1498,8297.67
1499,8299.843
1500,8279.845
1501,8242.401
1502,8215.391
1503,8226.092
1504,8259.293
1505,8272.485
1506,8242.637
1507,8200.397
1508,8183.057
1509,8193.808
1510,8209.704
1511,8213.473
1512,8208.268
1513,8201.165
1514,8195.769
1515,8192.584
1516,8191.586
1517,8191.157
1518,8189.362
1519,8185.769
1520,8181.455
1521,8177.399
1522,8173.854
1523,8170.879
1524,8168.479
1525,8166.587
1526,8165.035
1527,8163.14
1528,8160.109
1529,8156.474
1530,8154.357
1531,8154.671
1532,8151.653
1533,8137.677
1534,8114.928
1535,8098.014
1536,8098.893
1537,8111.033
1538,8121.9
1539,8125.102
1540,8122.269
1541,8116.187
1542,8113.031
1543,8119.919
1544,8135.927
1545,8149.604
1546,8151.849
1547,8150.07
1548,8157.072
1549,8179.274
1550,8214.907
1551,8259.655
1552,8298.7
1553,8314.482
1554,8312.112
1555,8324.504
1556,8373.957
1557,8422.657
1558,8416.362
1559,8356.169
1560,8306.56
1561,8318.612
1562,8368.422
1563,8412.11
1564,8427.276
1565,8413.932
1566,8378.134
1567,8345.618
1568,8345.345
1569,8373.637
1570,8396.487
1571,8390.983
1572,8375.86
1573,8377.093
1574,8394.757
1575,8408.036
1576,8403.592
1577,8391.203
1578,8383.895
1579,8383.806
1580,8385.645
1581,8385.986
1582,8386.144
1583,8388.25
1584,8395.706
1585,8412.546
1586,8433.137
1587,8433.402
1588,8393.175
1589,8336.541
1590,8306.901
1591,8315.715
1592,8326.063
1593,8305.643
1594,8270.285
1595,8251.642
1596,8254.304
1597,8251.067
1598,8222.75
1599,8190.736
1600,8185.023
1601,8200.675
1602,8201.534
1603,8164.816
1604,8110.841
1605,8066.329
1606,8038.785
1607,8022.97
1608,8010.773
1609,7988.45
1610,7944.276
1611,7888.175
1612,7840.063
1613,7805.622
1614,7769.013
1615,7716.753
1616,7656.91
1617,7604.164
1618,7563.575
1619,7530.087
1620,7498.718
1621,7466.343
1622,7430.041
1623,7384.219
1624,7321.418
1625,7242.908
1626,7169.321
1627,7120.268
1628,7087.122
1629,7048.294
1630,6998.033
1631,6953.344
1632,6926.872
1633,6902.573
1634,6857.262
1635,6792.839
1636,6734.247
1637,6695.366
1638,6656.716
1639,6595.984
1640,6520.307
1641,6453.552
1642,6407.411
1643,6372.776
1644,6340.438
1645,6311.477
1646,6290.013
1647,6269.381
1648,6232.005
1649,6169.177
1650,6100.462
1651,6048.582
1652,6013.668
1653,5982.411
1654,5944.938
1655,5897.496
1656,5839.324
1657,5782.405
1658,5742.266
1659,5720.265
1660,5704.117
1661,5683.747
1662,5656.7
1663,5621.957
1664,5579.701
1665,5530.835
1666,5480.55
1667,5440.315
1668,5418.057
1669,5404.142
1670,5384.644
1671,5353.141
1672,5309.15
1673,5258.517
1674,5220.314
1675,5209.462
1676,5202.508
1677,5162.149
1678,5093.358
1679,5047.364
1680,5054.424
1681,5074.5
1682,5059.847
1683,5014.444
1684,4970.327
1685,4942.938
1686,4923.356
1687,4903.004
1688,4882.422
1689,4864.224
1690,4848.1
1691,4831.693
1692,4814.115
1693,4797.197
1694,4782.77
1695,4771.168
1696,4761.9
1697,4748.293
1698,4718.511
1699,4672.487
1700,4635.988
1701,4632.132
1702,4647.297
1703,4654.861
1704,4646.917
1705,4633.665
1706,4621.958
1707,4608.669
1708,4589.649
1709,4564.108
1710,4532.905
1711,4503.137
1712,4488.395
1713,4493.019
1714,4496.354
1715,4478.139
1716,4450.08
1717,4437.067
1718,4442.089
1719,4444.61
1720,4432.664
1721,4419.896
1722,4420.859
1723,4426.85
1724,4419.715
1725,4396.794
1726,4371.609
1727,4354.831
1728,4348.118
1729,4350.695
1730,4354.921
1731,4350.457
1732,4328.837
1733,4283.463
1734,4222.188
1735,4185.125
1736,4204.642
1737,4243.707
1738,4244.032
1739,4204.748
1740,4172.828
1741,4174.86
1742,4195.771
1743,4215.848
1744,4215.568
1745,4178.63
1746,4129.267
1747,4118.958
1748,4156.294
1749,4183.139
1750,4157.448
1751,4115.739
1752,4106.098
1753,4120.207
1754,4120.346
1755,4096.914
1756,4073.798
1757,4068.121
1758,4074.107
1759,4082.651
1760,4087.167
1761,4082.415
1762,4069.612
1763,4055.487
1764,4043.063
1765,4028.203
1766,4008.597
1767,3992.889
1768,3990.381
1769,3987.276
1770,3956.868
1771,3899.496
1772,3849.266
1773,3824.358
1774,3794.886
1775,3729.105
1776,3632.303
1777,3523.654
1778,3420.792
1779,3340.043
1780,3293.428
1781,3285.963
1782,3318.381
1783,3378.604
1784,3452.743
1785,3535.001
1786,3623.07
1787,3705.782
1788,3763.374
1789,3785.581
1790,3781.55
1791,3765.881
1792,3766.49
1793,3809.511
1794,3871.001
1795,3900.849
1796,3886.79
1797,3857.866
1798,3833.292
1799,3806.75
1800,3773.046
1801,3746.768
1802,3745.979
1803,3768.203
1804,3799.199
1805,3823.313
1806,3823.568
1807,3795.219
1808,3759.511
1809,3738.202
1810,3740.942
1811,3770.638
1812,3798.182
1813,3779.609
1814,3724.358
1815,3695.485
1816,3722.382
1817,3766.516
1818,3790.724
1819,3790.74
1820,3770.608
1821,3739.968
1822,3710.778
1823,3690.96
1824,3684.962
1825,3692.763
1826,3707.682
1827,3721.95
1828,3726.334
1829,3713.759
1830,3690.64
1831,3668.096
1832,3657.761
1833,3670.978
1834,3700.94
1835,3720.445
1836,3715.655
1837,3701.823
1838,3694.668
1839,3698.616
1840,3713.263
1841,3722.512
1842,3705.466
1843,3670.617
1844,3648.404
1845,3651.354
1846,3667.821
1847,3685.979
1848,3697.346
1849,3696.733
1850,3690.659
1851,3687.062
1852,3681.795
1853,3666.311
1854,3649.887
1855,3655.123
1856,3679.009
1857,3684.741
1858,3657.266
1859,3634.44
1860,3645.046
1861,3655.974
1862,3628.707
1863,3589.134
1864,3586.141
1865,3618.865
1866,3652.423
1867,3667.096
1868,3661.059
1869,3639.771
1870,3620.21
1871,3614.354
1872,3615.306
1873,3612.85
1874,3598.05
1875,3565.056
1876,3532.015
1877,3528.174
1878,3556.601
1879,3598.385
1880,3632.647
1881,3636.968
1882,3607.504
1883,3578.695
1884,3577.36
1885,3589.617
1886,3596.483
1887,3596.665
1888,3593.589
1889,3579.938
1890,3544.736
1891,3509.766
1892,3521.711
1893,3571.046
1894,3579.295
1895,3518.773
1896,3463.137
1897,3464.199
1898,3480.987
1899,3467.787
1900,3430.108
1901,3388.17
1902,3366.142
1903,3386.67
1904,3435.596
1905,3476.714
1906,3499.247
1907,3516.042
1908,3532.865
1909,3544.856
1910,3549.116
1911,3548.004
1912,3544.339
1913,3540.521
1914,3537.858
1915,3533.31
1916,3523.704
1917,3512.392
1918,3504.737
1919,3500.853
1920,3497.954
1921,3494.197
1922,3488.659
1923,3484.728
1924,3490.373
1925,3507.616
1926,3529.11
1927,3545.698
1928,3546.113
1929,3527.756
1930,3514.324
1931,3524.845
1932,3538.81
1933,3532.051
1934,3519.361
1935,3525.494
1936,3539.879
1937,3536.557
1938,3516.979
1939,3500.308
1940,3491.783
1941,3484.168
1942,3476.132
1943,3473.645
1944,3475.92
1945,3471.295
1946,3461.96
1947,3479.781
1948,3532.154
1949,3552.16
1950,3495.525
1951,3440.671
1952,3466.103
1953,3524.655
1954,3543.469
1955,3516.916
1956,3466.979
1957,3432.663
1958,3455.297
1959,3509.764
1960,3533.397
1961,3518.371
1962,3498.678
1963,3484.94
1964,3464.885
1965,3445.949
1966,3459.304
1967,3500.538
1968,3511.861
1969,3473.106
1970,3438.62
1971,3441.206
1972,3449.777
1973,3440.116
1974,3428.873
1975,3431.283
1976,3435.931
1977,3429.93
1978,3416.239
1979,3401.804
1980,3393.78
1981,3399.098
1982,3422.843
1983,3465.209
1984,3496.733
1985,3481.636
1986,3439.157
1987,3412.036
1988,3399.164
1989,3376.141
1990,3349.907
1991,3347.017
1992,3367.104
1993,3389.405
1994,3406.438
1995,3422.633
1996,3437.446
1997,3445.093
1998,3442.242
1999,3428.584
2000,3405.073
2001,3374.271
2002,3348.808
2003,3354.582
2004,3391.956
2005,3421.08
2006,3414.538
2007,3371.701
2008,3314.798
2009,3302.822
2010,3354.697
2011,3401.875
2012,3401.765
2013,3390.032
2014,3390.809
2015,3377.984
2016,3339.854
2017,3318.012
2018,3338.974
2019,3367.971
2020,3373.132
2021,3358.727
2022,3338.567
2023,3336.033
2024,3359.847
2025,3368.373
2026,3333.44
2027,3300.46
2028,3308.212
2029,3325.53
2030,3318.954
2031,3295.67
2032,3271.966
2033,3265.99
2034,3286.561
2035,3308.681
2036,3308.48
2037,3291.637
2038,3273.064
2039,3277.343
2040,3313.863
2041,3332.5
2042,3296.307
2043,3256.527
2044,3260.02
2045,3277.032
2046,3271.11
2047,3235.465
2048,3180.223
2049,3149.499
2050,3175.096
2051,3232.135
2052,3284.277
2053,3292.844
2054,3244.053
2055,3192.41
2056,3182.543
2057,3204.81
2058,3239.047
2059,3260.364
2060,3258.77
2061,3258.743
2062,3271.463
2063,3271.506
2064,3246.312
2065,3216.061
2066,3197.308
2067,3193.849
2068,3199.945
2069,3197.004
2070,3175.204
2071,3139.225
2072,3104.121
2073,3096.131
2074,3117.914
2075,3144.641
2076,3170.252
2077,3207.721
2078,3229.797
2079,3177.793
2080,3097.382
2081,3108.527
2082,3176.943
2083,3170.445
2084,3107.846
2085,3091.668
2086,3121.117
2087,3143.064
2088,3132.099
2089,3081.801
2090,3024.203
2091,3000.229
2092,3019.125
2093,3070.613
2094,3104.72
2095,3085.485
2096,3064.463
2097,3085.663
2098,3115.123
2099,3122.856
2100,3121.52
2101,3119.465
2102,3104.977
2103,3078.429
2104,3062.739
2105,3073.143
2106,3111.324
2107,3153.283
2108,3153.55
2109,3146.021
2110,3221.028
2111,3319.561
2112,3301.334
2113,3229.795
2114,3249.338
2115,3292.713
2116,3238.606
2117,3156.423
2118,3147.679
2119,3192.095
2120,3236.664
2121,3221.574
2122,3138.072
2123,3095.703
2124,3134.101
2125,3144.815
2126,3083.318
2127,3009.059
2128,2976.266
2129,3020.331
2130,3082.823
2131,3049.2
2132,2957.139
2133,2916.553
2134,2924.984
2135,2934.908
2136,2913.325
2137,2855.561
2138,2839.71
2139,2897.017
2140,2899.376
2141,2800.471
2142,2739.873
2143,2765.094
2144,2783.549
2145,2763.252
2146,2735.811
2147,2715.011
2148,2699.843
2149,2679.399
2150,2643.914
2151,2613.48
2152,2611.805
2153,2640.774
2154,2680.183
2155,2669.524
2156,2589.841
2157,2499.398
2158,2451.322
2159,2479.995
2160,2545.766
2161,2561.218
2162,2524.24
2163,2477.289
2164,2453.694
2165,2464.3
2166,2450.387
2167,2391.031
2168,2389.663
2169,2462.771
2170,2470.064
2171,2400
2172,2377.981
2173,2407.326
2174,2412.813
2175,2386.93
2176,2351.892
2177,2325.617
2178,2308.747
2179,2258.593
2180,2172.376
2181,2126.72
2182,2146.068
2183,2188.619
2184,2214.082
2185,2193.246
2186,2152.656
2187,2134.816
2188,2144.865
2189,2163.373
2190,2135.185
2191,2067.672
2192,2067.625
2193,2119.556
2194,2096.698
2195,2021.989
2196,1991.481
2197,1996.851
2198,2004.771
2199,2020.806
2200,2031.571
2201,1976.666
2202,1884.067
2203,1875.692
2204,1930.606
2205,1947.823
2206,1956.06
2207,1997.987
2208,1984.39
2209,1887.32
2210,1852.507
2211,1921.837
2212,1995.373
2213,1978.046
2214,1820.089
2215,1696.326
2216,1760.475
2217,1825.907
2218,1778.428
2219,1749.097
2220,1757.695
2221,1702.299
2222,1634.287
2223,1654.559
2224,1664.637
2225,1588.778
2226,1562.322
2227,1635.958
2228,1700.792
2229,1692.209
2230,1601.031
2231,1502.598
2232,1471.437
2233,1464.04
2234,1434.766
2235,1379.702
2236,1347.535
2237,1411.796
2238,1474.521
2239,1418.02
2240,1388.993
2241,1463.484
2242,1453.319
2243,1347.295
2244,1329.784
2245,1384.524
2246,1398.198
2247,1333.337
2248,1221.279
2249,1188.005
2250,1232.319
2251,1225.481
2252,1220.18
2253,1308.084
2254,1322.844
2255,1183.615
2256,1100.478
2257,1128.145
2258,1147.292
2259,1133.183
2260,1102.601
2261,1043.348
2262,961.6978
2263,906.4888
2264,934.3917
2265,1070.349
2266,1116.205
2267,952.877
2268,924.917
2269,1079.122
2270,1008.737
2271,841.3757
2272,934.7848
2273,1043.323
2274,955.2086
2275,876.2282
2276,899.4454
2277,957.3044
2278,943.0271
2279,820.1785
2280,802.2369
2281,916.7756
2282,906.0416
2283,810.4974
2284,803.1647
2285,776.6255
2286,680.8839
2287,695.0436
2288,798.5319
2289,819.9125
2290,782.3707
2291,743.591
2292,676.5568
2293,614.8722
2294,645.2926
2295,692.879
2296,661.812
2297,609.9111
2298,573.2759
2299,530.8962
2300,492.1764
