400,37919.98
401,37258.54
402,36622.88
403,35984.89
404,35348.26
405,34727.24
406,34135.27
407,33573.57
408,33032.1
409,32500.47
410,31974.96
411,31468.3
412,30995.64
413,30569.08
414,30178.28
415,29802.59
416,29422.23
417,29039.2
418,28682.2
419,28381.2
420,28153.07
421,27971.23
422,27800.21
423,27608.81
424,27406.48
425,27226.8
426,27102.78
427,27040.64
428,27005.55
429,26959.64
430,26874.08
431,26756.84
432,26625.63
433,26497.01
434,26375.41
435,26256.58
436,26136.14
437,26014.52
438,25900.78
439,25804.79
440,25730.76
441,25654.91
442,25545.01
443,25371.74
444,25146.64
445,24914.23
446,24719.26
447,24585.39
448,24494.26
449,24422.7
450,24349.41
451,24262.06
452,24151.46
453,24009.29
454,23840.79
455,23662.83
456,23492.39
457,23342.09
458,23215.49
459,23114.99
460,23039.33
461,22966.63
462,22868.07
463,22716.94
464,22518.82
465,22306.9
466,22114.77
467,21960.38
468,21829.91
469,21705.78
470,21573.14
471,21430.78
472,21282.01
473,21130.39
474,20984.25
475,20855.74
476,20756.92
477,20691.11
478,20645.41
479,20605.18
480,20558.63
481,20506.67
482,20453.98
483,20404.95
484,20360.44
485,20318.83
486,20278.41
487,20235.12
488,20181.04
489,20107.96
490,20013
491,19914.26
492,19834.87
493,19794.52
494,19779.13
495,19754.57
496,19687.25
497,19561.1
498,19383.4
499,19162.96
500,18911.63
501,18650.89
502,18403.92
503,18189.99
504,17999.79
505,17810.75
506,17601.07
507,17362.64
508,17101.52
509,16824.37
510,16543.42
511,16283.78
512,16072.1
513,15928.17
514,15835.67
515,15766.19
516,15692.7
517,15604.45
518,15502.98
519,15390.07
520,15264.78
521,15121.83
522,14955.58
523,14763.82
524,14556.67
525,14346.97
526,14146.63
527,13960.56
528,13790.05
529,13636.31
530,13499.19
531,13377.14
532,13268.55
533,13174.2
534,13100.33
535,13053.92
536,13036.9
537,13025.22
538,12986.61
539,12892.05
540,12751.18
541,12600.28
542,12475.34
543,12388.17
544,12316.64
545,12236.23
546,12131.31
547,12012.43
548,11894.87
549,11792.14
550,11706.8
551,11636.88
552,11580.4
553,11534.55
554,11495.81
555,11460.69
556,11423.26
557,11373.58
558,11301.39
559,11203.66
560,11102.25
561,11024.29
562,10991.84
563,10989.96
564,10986.75
565,10952.16
566,10889.06
567,10830.24
568,10809.1
569,10836.7
570,10884.74
571,10921.06
572,10924.1
573,10910.02
574,10903.38
575,10924.35
576,10960.13
577,10982.61
578,10965.05
579,10903.71
580,10815.57
581,10718.14
582,10623.99
583,10537.38
584,10461.7
585,10399.74
586,10352.18
587,10319.28
588,10300.39
589,10288.69
590,10274.75
591,10250.06
592,10220.24
593,10202.27
594,10212.97
595,10251.87
596,10292.84
597,10307.87
598,10282.09
599,10237.47
600,10202.27
601,10198.74
602,10216.45
603,10233.65
604,10230.71
605,10211.54
606,10195.32
607,10200.73
608,10226.51
609,10248.05
610,10239.67
611,10192.25
612,10131.86
613,10088.92
614,10084.82
615,10105.03
616,10126.03
617,10128.41
618,10124.19
619,10140.24
620,10201.68
621,10304.49
622,10420.04
623,10519.55
624,10597.56
625,10682.9
626,10806.96
627,10988.53
628,11213.47
629,11462.33
630,11719.98
631,11992.08
632,12290.59
633,12626.96
634,13008.2
635,13438.92
636,13924.33
637,14483.8
638,15149.93
639,15954.98
640,16883.29
641,17842.88
642,18735.34
643,19479.48
644,20040.99
645,20393.78
646,20513.05
647,20379.92
648,19977.42
649,19295.35
650,18386.11
651,17335.86
652,16229.42
653,15127.16
654,14067.39
655,13087.25
656,12211.8
657,11448.27
658,10802.38
659,10273.31
660,9843.863
661,9494.422
662,9208.349
663,8981.633
664,8813.682
665,8702.612
666,8636.758
667,8599.983
668,8576.384
669,8552.854
670,8518.396
671,8462.542
672,8389.147
673,8319.226
674,8274.593
675,8261.518
676,8256.477
677,8232.643
678,8175.18
679,8106.955
680,8058.19
681,8051.999
682,8074.177
683,8098.252
684,8100.325
685,8079.342
686,8046.438
687,8012.583
688,7984.541
689,7965.539
690,7958.717
691,7967.985
692,7998.268
693,8054.477
694,8133.268
695,8214.752
696,8277.106
697,8305.612
698,8308.019
699,8296.51
700,8282.393
701,8272.565
702,8272.513
703,8285.996
704,8302.408
705,8303.963
706,8274.191
707,8216.435
708,8149.056
709,8090.445
710,8049.661
711,8025.201
712,8014.979
713,8015.39
714,8020.268
715,8023.21
716,8020.633
717,8016.127
718,8014.412
719,8017.338
720,8015.526
721,7996.838
722,7952.521
723,7894.354
724,7841.834
725,7812.608
726,7806.447
727,7813.105
728,7822.373
729,7826.282
730,7818.689
731,7793.823
732,7755.753
733,7720.035
734,7702.777
735,7713.307
736,7749.6
737,7808.548
738,7884.738
739,7967.168
740,8044.012
741,8107.788
742,8166.495
743,8231.574
744,8312.132
745,8404.983
746,8502.917
747,8598.739
748,8685.365
749,8755.771
750,8803.315
751,8826.035
752,8825.075
753,8801.65
754,8757.278
755,8693.768
756,8613.132
757,8524.805
758,8447.588
759,8400.697
760,8387.643
761,8384.654
762,8365.287
763,8319.251
764,8275.063
765,8266.952
766,8315.498
767,8395.403
768,8471.742
769,8517.072
770,8539.295
771,8556.721
772,8586.377
773,8636.699
774,8712.633
775,8817.945
776,8945.29
777,9081.199
778,9212.737
779,9335.488
780,9451.292
781,9562.313
782,9674.464
783,9797.302
784,9940.24
785,10101.75
786,10266.41
787,10418.13
788,10555.44
789,10701.14
790,10880.27
791,11106.64
792,11369.67
793,11655.56
794,11952.44
795,12253.97
796,12554.8
797,12854.73
798,13173.2
799,13534.31
800,13954.95
801,14415.44
802,14884.66
803,15336.9
804,15782.71
805,16247.44
806,16753.51
807,17296.44
808,17857.7
809,18417.86
810,18948.92
811,19417.11
812,19789.88
813,20057.36
814,20228.47
815,20312.41
816,20311.13
817,20219.07
818,20030.92
819,19762.98
820,19459.08
821,19164.51
822,18900.71
823,18651.6
824,18397.89
825,18132.2
826,17870.19
827,17630.18
828,17429.19
829,17281
830,17198.96
831,17189.02
832,17235.41
833,17318.33
834,17419.85
835,17529.12
836,17636.83
837,17737.17
838,17839.93
839,17959.31
840,18106
841,18271.3
842,18439.88
843,18599.42
844,18758.54
845,18934.45
846,19145.13
847,19413.88
848,19766.71
849,20227.66
850,20800.12
851,21475.35
852,22243.97
853,23090.16
854,23993.7
855,24933.32
856,25873.47
857,26767.13
858,27566.03
859,28205.76
860,28606.93
861,28690.22
862,28398.49
863,27698.3
864,26559.26
865,25017.94
866,23192.99
867,21208.51
868,19194.13
869,17287.08
870,15624.48
871,14276.1
872,13204.31
873,12361.86
874,11704.56
875,11193.86
876,10791.74
877,10468.72
878,10212.85
879,10014.26
880,9862.282
881,9744.426
882,9647.918
883,9564.246
884,9495.944
885,9447.313
886,9417.784
887,9392.674
888,9354.722
889,9293.141
890,9218.16
891,9144.278
892,9081.708
893,9025.196
894,8965.995
895,8898.842
896,8832.37
897,8778.693
898,8745.315
899,8719.506
900,8682.964
901,8623.511
902,8558.421
903,8513.821
904,8510.134
905,8537.706
906,8577.08
907,8610.644
908,8631.511
909,8636.549
910,8625.179
911,8612.353
912,8618.925
913,8661.665
914,8730.177
915,8803.11
916,8861.872
917,8907.804
918,8950.771
919,8999.36
920,9052.213
921,9103.486
922,9148.484
923,9191.851
924,9242.651
925,9308.014
926,9378.507
927,9436.501
928,9466.424
929,9471.535
930,9464.781
931,9457.709
932,9448.282
933,9427.236
934,9386.789
935,9333.852
936,9283.376
937,9248.77
938,9227.308
939,9207.246
940,9177.782
941,9138.686
942,9095.747
943,9054.707
944,9019.885
945,8994.791
946,8982.418
947,8980.575
948,8984.038
949,8987.124
950,8980.034
951,8950.539
952,8889.003
953,8812.816
954,8755.209
955,8745.806
956,8774.743
957,8809.167
958,8819.089
959,8806.913
960,8793.726
961,8798.376
962,8815.026
963,8823.809
964,8806.99
965,8769.317
966,8728.072
967,8698.98
968,8681.605
969,8666.728
970,8646.296
971,8623.764
972,8608.673
973,8609.412
974,8623.748
975,8644.016
976,8663.462
977,8683.394
978,8709.077
979,8745.448
980,8794.504
981,8856.867
982,8933.253
983,9025.132
984,9134.311
985,9262.9
986,9415.028
987,9595.697
988,9807.886
989,10041.33
990,10280.44
991,10511.69
992,10734.71
993,10954.02
994,11176.68
995,11423.87
996,11721.74
997,12081.74
998,12438.07
999,12699.64
1000,12795.3
1001,12751.04
1002,12622.06
1003,12451.52
1004,12228.92
1005,11928.96
1006,11534.38
1007,11090.53
1008,10672.01
1009,10345.01
1010,10116.51
1011,9968.958
1012,9882.944
1013,9828.817
1014,9773.123
1015,9690.695
1016,9599.082
1017,9529.463
1018,9507.903
1019,9537.547
1020,9615.243
1021,9732.115
1022,9857.773
1023,9956.668
1024,10007.03
1025,10031.63
1026,10062.21
1027,10118.36
1028,10186.35
1029,10246.79
1030,10286.61
1031,10307.34
1032,10312.6
1033,10308.01
1034,10303.11
1035,10307.71
1036,10320.29
1037,10320.62
1038,10287.11
1039,10217.85
1040,10138.1
1041,10074.67
1042,10038.44
1043,10021.97
1044,10016.55
1045,10009.82
1046,9985.862
1047,9930.296
1048,9855.749
1049,9796.339
1050,9783.501
1051,9809.083
1052,9839.095
1053,9843.271
1054,9829.483
1055,9825.804
1056,9854.841
1057,9899.645
1058,9926.464
1059,9909.911
1060,9870.234
1061,9843.007
1062,9854.585
1063,9892.616
1064,9934.643
1065,9963.727
1066,9980.814
1067,9990.449
1068,10000.22
1069,10025.27
1070,10081.75
1071,10168.57
1072,10251.4
1073,10292.65
1074,10285.97
1075,10271.64
1076,10292.85
1077,10363.77
1078,10464.87
1079,10575.38
1080,10686.79
1081,10801.53
1082,10921.71
1083,11040.05
1084,11142.83
1085,11220.87
1086,11305.9
1087,11450.95
1088,11697.62
1089,12014.18
1090,12340.6
1091,12635.4
1092,12941.28
1093,13324.68
1094,13837.19
1095,14482
1096,15252.66
1097,16157.48
1098,17239.26
1099,18545.6
1100,20108.42
1101,21933.01
1102,24020.98
1103,26334.98
1104,28789.29
1105,31291.25
1106,33675.98
1107,35712.96
1108,37178.43
1109,37963.69
1110,38035.75
1111,37378.72
1112,36100
1113,34364.96
1114,32332.58
1115,30124.92
1116,27852.21
1117,25624
1118,23546.55
1119,21725.49
1120,20215.57
1121,18948.44
1122,17838
1123,16843.34
1124,15998.97
1125,15345.06
1126,14874.06
1127,14522.99
1128,14228.66
1129,13977.33
1130,13795.28
1131,13705.57
1132,13689.29
1133,13704.21
1134,13715.98
1135,13739.64
1136,13808.56
1137,13946.4
1138,14139.1
1139,14363.44
1140,14609.36
1141,14899.62
1142,15261.7
1143,15696.25
1144,16159.74
1145,16605.97
1146,17032.24
1147,17483.65
1148,18005.2
1149,18605.01
1150,19264.15
1151,19963.29
1152,20685.03
1153,21412.89
1154,22131.69
1155,22832.64
1156,23508.91
1157,24155.7
1158,24774.28
1159,25366.98
1160,25926.55
1161,26427.75
1162,26843.21
1163,27140.53
1164,27281.34
1165,27229.27
1166,26984.33
1167,26574.52
1168,26027.04
1169,25356.1
1170,24569.6
1171,23677.65
1172,22700.66
1173,21662.15
1174,20592.55
1175,19541.54
1176,18561.9
1177,17684.42
1178,16902.62
1179,16206.71
1180,15594.68
1181,15072.59
1182,14645.78
1183,14306.13
1184,14036.83
1185,13822.82
1186,13661.14
1187,13553.48
1188,13499.16
1189,13489.02
1190,13512.01
1191,13563.17
1192,13649.94
1193,13780.73
1194,13943.78
1195,14102.67
1196,14221.6
1197,14294.83
1198,14338.65
1199,14371.36
1200,14421.7
1201,14522.86
1202,14688.92
1203,14860.85
1204,14962.39
1205,14966.49
1206,14950.4
1207,15002.94
1208,15148.36
1209,15331.96
1210,15497.66
1211,15636
1212,15770.67
1213,15925.04
1214,16115.64
1215,16356.28
1216,16658.63
1217,17027.15
1218,17464.66
1219,17968.32
1220,18524.65
1221,19120.01
1222,19765.8
1223,20499.7
1224,21356.97
1225,22334.48
1226,23406.52
1227,24550.1
1228,25757.97
1229,27027.84
1230,28361.97
1231,29774.56
1232,31281.3
1233,32877.95
1234,34532.24
1235,36209.17
1236,37864.27
1237,39445.72
1238,40911.15
1239,42282.94
1240,43610.19
1241,44914.41
1242,46125.07
1243,47153.22
1244,47974.32
1245,48673.83
1246,49343.79
1247,49993.26
1248,50555.44
1249,50968.47
1250,51232.93
1251,51379.43
1252,51438.61
1253,51440.59
1254,51415.14
1255,51372.8
1256,51287.83
1257,51132.05
1258,50912.43
1259,50670.41
1260,50440.5
1261,50186.09
1262,49834.63
1263,49332.55
1264,48701.24
1265,47980.14
1266,47186.43
1267,46295.52
1268,45280.34
1269,44159
1270,42992.58
1271,41839.15
1272,40719.36
1273,39636.02
1274,38583.42
1275,37526.07
1276,36422.64
1277,35293.12
1278,34260.89
1279,33451.51
1280,32856.38
1281,32354.5
1282,31837.19
1283,31300.56
1284,30783.19
1285,30313.42
1286,29889.41
1287,29503.85
1288,29149.98
1289,28821.82
1290,28511.16
1291,28182.42
1292,27781.7
1293,27277.13
1294,26747.27
1295,26304.32
1296,26003.52
1297,25776.74
1298,25542.89
1299,25297.39
1300,25113.65
1301,25063.93
1302,25183.27
1303,25488.87
1304,25990.21
1305,26671.6
1306,27512.55
1307,28513.57
1308,29706.09
1309,31122.63
1310,32777.88
1311,34674.27
1312,36806.33
1313,39131.44
1314,41596.06
1315,44182.29
1316,46944.58
1317,49940.17
1318,53106.93
1319,56272.88
1320,59264.51
1321,61925.71
1322,64107.44
1323,65672.21
1324,66513.68
1325,66540.73
1326,65973.19
1327,65393.39
1328,65327.21
1329,65626.9
1330,65796.88
1331,65408.64
1332,64268.76
1333,62237.28
1334,59369.88
1335,55996.42
1336,52452.72
1337,48915.96
1338,45466.16
1339,42168.77
1340,39036.8
1341,36070.64
1342,33294.84
1343,30772.42
1344,28562.45
1345,26630.73
1346,24879.19
1347,23235.9
1348,21749.72
1349,20502.09
1350,19522.54
1351,18751.3
1352,18121.15
1353,17583.34
1354,17102.55
1355,16651.88
1356,16241.93
1357,15893.79
1358,15610.71
1359,15364.58
1360,15126.45
1361,14898.68
1362,14706.38
1363,14566.83
1364,14460.03
1365,14355.78
1366,14243.05
1367,14143.17
1368,14078.16
1369,14039.64
1370,13998.41
1371,13938.32
1372,13898.74
1373,13932.52
1374,14043.21
1375,14158.58
1376,14208.87
1377,14220.04
1378,14276.63
1379,14431.72
1380,14623.33
1381,14765.33
1382,14830.05
1383,14867.27
1384,14927.85
1385,15025.67
1386,15155.54
1387,15308.09
1388,15462.2
1389,15594.98
1390,15691.98
1391,15747.94
1392,15761.31
1393,15752.61
1394,15751.2
1395,15767.2
1396,15767.57
1397,15715.56
1398,15610.21
1399,15480.54
1400,15349.6
1401,15207.26
1402,15033.55
1403,14816.88
1404,14559.46
1405,14267.41
1406,13975.59
1407,13736.4
1408,13575.65
1409,13430.6
1410,13222.59
1411,12943.84
1412,12668.55
1413,12464.28
1414,12322.6
1415,12203.52
1416,12076.7
1417,11932.93
1418,11766.98
1419,11592.26
1420,11436.64
1421,11323.45
1422,11255.67
1423,11230.72
1424,11233.69
1425,11232.66
1426,11199.25
1427,11143.48
1428,11093.85
1429,11067
1430,11050.32
1431,11028.03
1432,11004.45
1433,11000.77
1434,11033.88
1435,11099.39
1436,11186.99
1437,11282.15
1438,11364.44
1439,11415.71
1440,11439.64
1441,11450.29
1442,11462.81
1443,11494.61
1444,11562.48
1445,11668.5
1446,11803.24
1447,11952.61
1448,12085.38
1449,12166.94
1450,12190.44
1451,12183.03
1452,12171.5
1453,12166.59
1454,12172.56
1455,12185.34
1456,12185.12
1457,12151.64
1458,12079.27
1459,11971.43
1460,11837.86
1461,11706.33
1462,11606.26
1463,11533.73
1464,11454.13
1465,11342.8
1466,11225.46
1467,11141.42
1468,11106.27
1469,11103.98
1470,11118.39
1471,11147.51
1472,11195.33
1473,11268.74
1474,11380.11
1475,11540.25
1476,11737.4
1477,11946.42
1478,12143.64
1479,12309.73
1480,12426.73
1481,12486.26
1482,12487.8
1483,12439.82
1484,12383.54
1485,12365.49
1486,12373.12
1487,12330.42
1488,12180.13
1489,11975.72
1490,11804.34
1491,11699.05
1492,11617.58
1493,11519.23
1494,11411.67
1495,11322.48
1496,11268.22
1497,11245.97
1498,11249.87
1499,11265.88
1500,11275.72
1501,11265.56
1502,11231.51
1503,11171.97
1504,11096.53
1505,11021.96
1506,10960.49
1507,10911.75
1508,10873.51
1509,10847.48
1510,10838.37
1511,10841.19
1512,10819.41
1513,10732.69
1514,10588.35
1515,10436.11
1516,10314.58
1517,10215.06
1518,10118.2
1519,10017.42
1520,9918.919
1521,9827.806
1522,9741.843
1523,9656.96
1524,9572.727
1525,9492.745
1526,9420.234
1527,9355.584
1528,9298.348
1529,9248.586
1530,9206.944
1531,9174.813
1532,9157.225
1533,9159.93
1534,9172.555
1535,9164.296
1536,9113.117
1537,9051.018
1538,9027.144
1539,9056.279
1540,9108.414
1541,9155.271
1542,9194.397
1543,9232.169
1544,9276.443
1545,9337.035
1546,9421.939
1547,9528.659
1548,9651.072
1549,9779.649
1550,9900.472
1551,10006.24
1552,10125.56
1553,10297.39
1554,10515.14
1555,10716.33
1556,10852.26
1557,10957.71
1558,11091.92
1559,11283.34
1560,11525.24
1561,11810.01
1562,12135.02
1563,12499.13
1564,12905.13
1565,13359.9
1566,13869.58
1567,14436.63
1568,15062.38
1569,15743.81
1570,16473.83
1571,17239.26
1572,18006.6
1573,18736.19
1574,19358.84
1575,19781.54
1576,19949.84
1577,19921.8
1578,19769.84
1579,19496.22
1580,19055.42
1581,18446.27
1582,17774.54
1583,17152.05
1584,16600.33
1585,16090.2
1586,15613.88
1587,15205.36
1588,14896.58
1589,14669.52
1590,14483.92
1591,14311.24
1592,14140.81
1593,13965.95
1594,13794.02
1595,13636.31
1596,13475.69
1597,13261.68
1598,12958.82
1599,12601.7
1600,12241.9
1601,11912.19
1602,11628.5
1603,11393.1
1604,11169.33
1605,10917.33
1606,10645.27
1607,10393.03
1608,10185.17
1609,10012.35
1610,9862.051
1611,9730.377
1612,9617.423
1613,9515.534
1614,9405.372
1615,9271.199
1616,9121.085
1617,8970.763
1618,8834.333
1619,8724.171
1620,8642.587
1621,8557.85
1622,8434.645
1623,8286.947
1624,8163.924
1625,8092.936
1626,8051.51
1627,8011.845
1628,7956.489
1629,7873.339
1630,7773.306
1631,7700.174
1632,7683.468
1633,7673.903
1634,7602.924
1635,7477.842
1636,7375.645
1637,7345.06
1638,7348.445
1639,7336.328
1640,7290.785
1641,7212.121
1642,7111.212
1643,7016.358
1644,6949.803
1645,6891.83
1646,6810.509
1647,6721.152
1648,6686.93
1649,6734.667
1650,6774.914
1651,6709.012
1652,6570.846
1653,6472.499
1654,6460.078
1655,6466.054
1656,6427.18
1657,6361.345
1658,6311.693
1659,6288.011
1660,6267.982
1661,6236.317
1662,6200.699
1663,6171.749
1664,6151.132
1665,6135.733
1666,6121.238
1667,6101.633
1668,6072
1669,6032.775
1670,5986.509
1671,5945.92
1672,5931.613
1673,5944.308
1674,5941.614
1675,5886.813
1676,5816.585
1677,5794.896
1678,5826.011
1679,5848.856
1680,5823.041
1681,5780.551
1682,5762.302
1683,5765.383
1684,5763.227
1685,5749.137
1686,5745.442
1687,5765.99
1688,5781.181
1689,5753.998
1690,5694.129
1691,5643.894
1692,5629.094
1693,5644.354
1694,5678.129
1695,5704.153
1696,5693.334
1697,5649.134
1698,5602.577
1699,5578.885
1700,5588.852
1701,5634.942
1702,5680.278
1703,5675.532
1704,5623.25
1705,5576.087
1706,5566.405
1707,5571.848
1708,5567.219
1709,5564.147
1710,5588.269
1711,5629.606
1712,5640.925
1713,5595.255
1714,5523.197
1715,5461.715
1716,5426.617
1717,5424.065
1718,5450.699
1719,5492.985
1720,5531.676
1721,5533.789
1722,5473.22
1723,5388.707
1724,5344.833
1725,5349.889
1726,5353.48
1727,5324.3
1728,5285.681
1729,5266.196
1730,5273.492
1731,5305.9
1732,5343.099
1733,5347.03
1734,5304.698
1735,5260.961
1736,5258.358
1737,5281.072
1738,5294.2
1739,5290.301
1740,5284.833
1741,5284.659
1742,5278.921
1743,5260.952
1744,5252.989
1745,5282.156
1746,5330.102
1747,5347.757
1748,5324.825
1749,5311.526
1750,5342.299
1751,5376.067
1752,5361.396
1753,5308.129
1754,5258.343
1755,5232.616
1756,5225.802
1757,5225.701
1758,5205.438
1759,5144.599
1760,5078.94
1761,5062.975
1762,5094.214
1763,5121.328
1764,5116.226
1765,5096.628
1766,5079.904
1767,5061.127
1768,5030.748
1769,4992.11
1770,4956.01
1771,4926.786
1772,4900.62
1773,4860.195
1774,4753.648
1775,4542.181
1776,4301.679
1777,4145.849
1778,4101.105
1779,4124.161
1780,4178.469
1781,4241.725
1782,4301.157
1783,4372.947
1784,4473.704
1785,4572.348
1786,4617.389
1787,4613.343
1788,4619.345
1789,4668.418
1790,4737.713
1791,4802.334
1792,4856.185
1793,4898.077
1794,4926.771
1795,4940.951
1796,4938.146
1797,4914.677
1798,4874.615
1799,4838.759
1800,4826.901
1801,4844.522
1802,4890.462
1803,4937.406
1804,4944.545
1805,4910.202
1806,4875.674
1807,4866.566
1808,4870.67
1809,4872.319
1810,4861.671
1811,4832.222
1812,4793.739
1813,4764.45
1814,4756.533
1815,4775.875
1816,4814.536
1817,4839.057
1818,4824.75
1819,4789.767
1820,4760.337
1821,4749.086
1822,4761.606
1823,4788.322
1824,4807.194
1825,4810.867
1826,4814.997
1827,4827.102
1828,4825.956
1829,4794.132
1830,4763.509
1831,4777.437
1832,4815.76
1833,4819.574
1834,4778.939
1835,4739.789
1836,4726.937
1837,4716.705
1838,4692.797
1839,4687.992
1840,4735.805
1841,4793.94
1842,4793.118
1843,4749.514
1844,4742.914
1845,4792.106
1846,4834.064
1847,4829.525
1848,4805.981
1849,4790.403
1850,4769.611
1851,4725.147
1852,4677.008
1853,4661.041
1854,4684.997
1855,4734.331
1856,4785.594
1857,4804.641
1858,4784.079
1859,4776.999
1860,4822.612
1861,4875.9
1862,4881.156
1863,4847.715
1864,4810.702
1865,4788.14
1866,4785.824
1867,4799.941
1868,4816.188
1869,4822.14
1870,4809.859
1871,4781.528
1872,4768.463
1873,4796.231
1874,4832.53
1875,4832.515
1876,4805.176
1877,4786.291
1878,4785.455
1879,4790.145
1880,4784.063
1881,4747.072
1882,4684.533
1883,4654.544
1884,4697.168
1885,4771.553
1886,4828.341
1887,4862.359
1888,4882.982
1889,4897.458
1890,4910.983
1891,4913.738
1892,4884.375
1893,4822.586
1894,4754.098
1895,4699.263
1896,4665.562
1897,4652.016
1898,4637.651
1899,4606.936
1900,4583.987
1901,4596.212
1902,4617.643
1903,4606.242
1904,4594.783
1905,4658.815
1906,4780.923
1907,4858.88
1908,4860.583
1909,4851.708
1910,4871.333
1911,4893.652
1912,4889.895
1913,4844.205
1914,4758.604
1915,4701.318
1916,4739.646
1917,4822.589
1918,4861.467
1919,4851.644
1920,4834.286
1921,4828.422
1922,4835.589
1923,4866.328
1924,4940.621
1925,5026.856
1926,5015.194
1927,4872.533
1928,4740.642
1929,4728.911
1930,4785.98
1931,4839.262
1932,4850.594
1933,4803.117
1934,4752.978
1935,4769.223
1936,4805.807
1937,4770.362
1938,4706.505
1939,4741.753
1940,4862.503
1941,4931.483
1942,4909.344
1943,4875.692
1944,4873.031
1945,4876.628
1946,4869.081
1947,4859.202
1948,4858.57
1949,4877.706
1950,4916.65
1951,4939.224
1952,4918.243
1953,4905.62
1954,4957.08
1955,5009.949
1956,4972.125
1957,4879.476
1958,4825.119
1959,4843.089
1960,4926.619
1961,5007.904
1962,4978.716
1963,4869.38
1964,4840.409
1965,4922.342
1966,4986.641
1967,4970.296
1968,4919.112
1969,4871.168
1970,4835.447
1971,4823.229
1972,4857.178
1973,4935.532
1974,4987.415
1975,4966.036
1976,4940.683
1977,4974.047
1978,5008.078
1979,4974.306
1980,4899.528
1981,4833.907
1982,4795.927
1983,4789.325
1984,4794.293
1985,4786.931
1986,4794.57
1987,4861.489
1988,4940.594
1989,4939.579
1990,4872.106
1991,4819.793
1992,4802.347
1993,4791.584
1994,4777.05
1995,4765.031
1996,4763.544
1997,4780.976
1998,4803.797
1999,4795.215
2000,4758.936
2001,4749.499
2002,4777.165
2003,4787.346
2004,4761.004
2005,4740.22
2006,4746.934
2007,4760.873
2008,4773.51
2009,4804.95
2010,4848.263
2011,4837.038
2012,4757.062
2013,4721.412
2014,4787.537
2015,4845.563
2016,4815.84
2017,4752.631
2018,4715.245
2019,4722.19
2020,4761.335
2021,4753.68
2022,4659.312
2023,4587.108
2024,4620.016
2025,4677.802
2026,4678.438
2027,4633.811
2028,4579.607
2029,4568.322
2030,4635.517
2031,4747.774
2032,4843.153
2033,4812.39
2034,4613.442
2035,4472.27
2036,4566.105
2037,4699.79
2038,4682.749
2039,4622.17
2040,4641.378
2041,4696.69
2042,4725.622
2043,4723.743
2044,4702.501
2045,4685.354
2046,4687.063
2047,4686.235
2048,4665.476
2049,4642.472
2050,4639.297
2051,4670.626
2052,4725.288
2053,4722.768
2054,4628.068
2055,4561.776
2056,4595.782
2057,4612.447
2058,4544.209
2059,4512.709
2060,4582.952
2061,4634.105
2062,4608.214
2063,4626.391
2064,4718.087
2065,4700.176
2066,4536.838
2067,4484.947
2068,4609.352
2069,4630.14
2070,4473.644
2071,4400.482
2072,4491.58
2073,4565.65
2074,4547.032
2075,4502.003
2076,4474.588
2077,4477.136
2078,4514.211
2079,4581.535
2080,4626.759
2081,4568.289
2082,4452.772
2083,4406.229
2084,4413.854
2085,4385.236
2086,4347.117
2087,4372.63
2088,4406.552
2089,4357.837
2090,4281.683
2091,4268.778
2092,4298.485
2093,4319.854
2094,4307.271
2095,4257.921
2096,4225.584
2097,4242.951
2098,4245.441
2099,4202.901
2100,4207.582
2101,4293.131
2102,4346.572
2103,4324.351
2104,4317.321
2105,4338.219
2106,4287.613
2107,4167.306
2108,4088.987
2109,4089.069
2110,4133.244
2111,4158.666
2112,4099.901
2113,4034.582
2114,4086.102
2115,4155.88
2116,4096.85
2117,4004.71
2118,4007.241
2119,4042.348
2120,4030.717
2121,3983.511
2122,3926.911
2123,3882.738
2124,3868.948
2125,3896.539
2126,3929.499
2127,3875.99
2128,3770.292
2129,3765.679
2130,3832.524
2131,3816.61
2132,3759.962
2133,3786.481
2134,3792.878
2135,3642.199
2136,3507.106
2137,3563.561
2138,3668.698
2139,3672.34
2140,3578.608
2141,3450.496
2142,3410.692
2143,3462.003
2144,3453.163
2145,3397.876
2146,3455.466
2147,3570.294
2148,3567.79
2149,3501.198
2150,3497.015
2151,3494.821
2152,3417.228
2153,3341.875
2154,3336.642
2155,3365.026
2156,3378.858
2157,3337.42
2158,3248.363
2159,3171.422
2160,3137.635
2161,3148.049
2162,3155.063
2163,3107.622
2164,3080.368
2165,3141.808
2166,3176.549
2167,3101.168
2168,3004.903
2169,2927.961
2170,2801.931
2171,2691.762
2172,2785.762
2173,2974.595
2174,2981.379
2175,2822.392
2176,2643.298
2177,2579.531
2178,2677.582
2179,2749.628
2180,2678.672
2181,2539.747
2182,2448.836
2183,2528.943
2184,2675.866
2185,2659.385
2186,2507.687
2187,2355.012
2188,2293.384
2189,2349.953
2190,2416.983
2191,2431.45
2192,2430.182
2193,2411.765
2194,2339.147
2195,2271.187
2196,2289.044
2197,2272.705
2198,2125.999
2199,2057.619
2200,2169.472
2201,2251.002
2202,2188.371
2203,2024.195
2204,1905.977
2205,1992.147
2206,2090.838
2207,1994.158
2208,1923.008
2209,2016.044
2210,2069.013
2211,1982.724
2212,1826.887
2213,1704.264
2214,1700.203
2215,1696.172
2216,1603.481
2217,1674.752
2218,1933.403
2219,1897.509
2220,1601.635
2221,1587.339
2222,1752.999
2223,1724.307
2224,1646.057
2225,1690.249
2226,1694.456
2227,1579.231
2228,1449.923
2229,1381.05
2230,1400.381
2231,1449.448
2232,1454.679
2233,1410.557
2234,1353.848
2235,1363.843
2236,1397.717
2237,1317.618
2238,1181.066
2239,1110.113
2240,1087.439
2241,1103.717
2242,1226.965
2243,1338.833
2244,1174.646
2245,1004.428
2246,1207.363
2247,1363.582
2248,1165.903
2249,976.8343
2250,965.41
2251,1010.893
2252,1021.824
2253,962.9987
2254,935.2349
2255,988.8293
2256,1011.292
2257,991.9581
2258,1024.78
2259,1090.941
2260,1121.393
2261,1073.448
2262,974.2623
2263,949.6376
2264,981.1085
2265,942.8624
2266,840.037
2267,750.882
2268,804.6008
2269,955.46
2270,940.4882
2271,788.0958
2272,695.0405
2273,730.8716
2274,840.9604
2275,808.3644
2276,678.0109
2277,705.7756
2278,736.3044
2279,591.2576
2280,571.8738
2281,706.1616
2282,587.3821
2283,387.5193
2284,493.0822
2285,585.6976
2286,479.0215
2287,543.4937
2288,709.131
2289,594.0435
2290,391.3594
2291,368.8985
2292,471.0076
2293,532.2201
2294,380.3675
2295,279.6778
2296,469.3453
2297,553.4606
2298,383.8493
2299,238.7945
2300,241.3972
