400,62569.77
401,61236.99
402,59930.99
403,58708.18
404,57558.31
405,56449.1
406,55350.55
407,54271.76
408,53257.95
409,52355.01
410,51581.01
411,50884.38
412,50203.38
413,49486.61
414,48756.92
415,48071.33
416,47485.04
417,47008.91
418,46599.55
419,46210.77
420,45811.54
421,45420.98
422,45068.47
423,44778.73
424,44530.3
425,44274.33
426,43962.85
427,43580.82
428,43163.7
429,42750.75
430,42374.07
431,42036.71
432,41734.03
433,41461.11
434,41208.92
435,40965.53
436,40719.16
437,40465.12
438,40211.46
439,39967.5
440,39738.7
441,39511.84
442,39267.98
443,38990.45
444,38695.56
445,38426.23
446,38225.35
447,38104.12
448,38010.18
449,37884.25
450,37679.93
451,37418.67
452,37144.8
453,36900.22
454,36693.12
455,36502.8
456,36307.95
457,36098.73
458,35889.21
459,35696.31
460,35531.41
461,35375.66
462,35199.87
463,34976.93
464,34711.33
465,34434.55
466,34178.5
467,33962.45
468,33780.11
469,33622.12
470,33478.59
471,33336.52
472,33181.87
473,33001.85
474,32800.68
475,32596.3
476,32406.69
477,32238.05
478,32074.4
479,31897.49
480,31697.24
481,31502.03
482,31351.38
483,31280.25
484,31267.58
485,31252.29
486,31173.75
487,31013.15
488,30819.73
489,30648.44
490,30538.44
491,30467.82
492,30399.75
493,30301.8
494,30184.06
495,30081.88
496,30029.77
497,30028.12
498,30031.93
499,29993.52
500,29883.87
501,29730.89
502,29573.2
503,29443.57
504,29332.05
505,29208.9
506,29045.61
507,28839.53
508,28614.64
509,28395.86
510,28197.33
511,28008.88
512,27817.04
513,27613.91
514,27421.35
515,27271.16
516,27192.49
517,27180.67
518,27205.62
519,27236.94
520,27245.91
521,27206.27
522,27092.25
523,26887.76
524,26611.23
525,26288.79
526,25946.16
527,25608.22
528,25299.29
529,25042.49
530,24836.2
531,24651.93
532,24460.22
533,24251.21
534,24059.86
535,23927.08
536,23880.29
537,23878.3
538,23858.07
539,23761.83
540,23593.12
541,23397.83
542,23221.66
543,23081.17
544,22951.99
545,22806.85
546,22628.93
547,22432.24
548,22236.34
549,22057.57
550,21891.88
551,21726.91
552,21551.4
553,21371.93
554,21209.88
555,21086.71
556,21007.3
557,20949.07
558,20887.03
559,20803.02
560,20702.17
561,20594.59
562,20490.79
563,20404.93
564,20352.8
565,20348.83
566,20383.3
567,20424.51
568,20440.55
569,20427
570,20428.11
571,20492.79
572,20648.35
573,20844.7
574,21014.56
575,21098.86
576,21098.13
577,21040.72
578,20954.11
579,20851.01
580,20730.87
581,20592.69
582,20438.91
583,20277.9
584,20118.51
585,19966.54
586,19817.56
587,19665.04
588,19504.56
589,19346.31
590,19206.59
591,19100.78
592,19030.35
593,18985.64
594,18956.75
595,18934.11
596,18908.67
597,18871.46
598,18821.55
599,18780.53
600,18773.8
601,18819.13
602,18892.45
603,18955.27
604,18972.37
605,18944.45
606,18895.57
607,18849.5
608,18812.64
609,18771.08
610,18709.92
611,18626.28
612,18542.81
613,18485.28
614,18471.51
615,18487.51
616,18511.36
617,18523.76
618,18525.26
619,18525.79
620,18535.14
621,18560.17
622,18605.27
623,18674.71
624,18769.16
625,18884.08
626,19014.56
627,19164.1
628,19358.35
629,19626.47
630,19989.35
631,20428.19
632,20912.14
633,21414.02
634,21939.91
635,22514.07
636,23160.71
637,23901.24
638,24754.53
639,25738.79
640,26842.75
641,28008.02
642,29172.3
643,30270.03
644,31226.06
645,31963.88
646,32413.25
647,32533.65
648,32294.01
649,31671.56
650,30719.96
651,29534.12
652,28207.67
653,26810.38
654,25390.42
655,23994.95
656,22669.38
657,21456.58
658,20399.03
659,19521.99
660,18808.14
661,18233.67
662,17773.94
663,17400.32
664,17083.18
665,16796.58
666,16541.75
667,16332.4
668,16181.06
669,16083.28
670,16021.87
671,15979.46
672,15941.18
673,15895.15
674,15829.77
675,15745.92
676,15668.28
677,15624.19
678,15627.86
679,15652.18
680,15662.02
681,15630.2
682,15571.46
683,15514.28
684,15483.58
685,15472.24
686,15456.08
687,15412.65
688,15351.5
689,15308.84
690,15320.8
691,15391.92
692,15486.06
693,15564.58
694,15606.83
695,15628.06
696,15647.76
697,15680.15
698,15722.78
699,15769.9
700,15814.75
701,15845.29
702,15847.85
703,15811.82
704,15752.55
705,15698.35
706,15675.55
707,15680.85
708,15688.45
709,15672.61
710,15625
711,15556.99
712,15480.97
713,15408.94
714,15352.17
715,15321.84
716,15321
717,15331.97
718,15333.82
719,15311.56
720,15273.62
721,15234.12
722,15205.03
723,15185.09
724,15168.06
725,15147.84
726,15119.4
727,15078.32
728,15020.86
729,14954.03
730,14893.57
731,14855.07
732,14841.58
733,14841.5
734,14842.49
735,14838.97
736,14836.67
737,14842.38
738,14860.62
739,14890.42
740,14930.01
741,14979.11
742,15042.79
743,15127.35
744,15236.65
745,15361.94
746,15490.3
747,15610.15
748,15720.33
749,15824.57
750,15925.72
751,16015.54
752,16078.39
753,16099.54
754,16084.54
755,16057.57
756,16042.92
757,16042.83
758,16031.71
759,15982.4
760,15888.09
761,15777.21
762,15681.7
763,15620.71
764,15582.68
765,15551.49
766,15516.75
767,15487.15
768,15475.35
769,15490.98
770,15529.07
771,15580.38
772,15636.54
773,15695
774,15755.57
775,15818.54
776,15888.62
777,15972.94
778,16078.14
779,16203.18
780,16341.43
781,16485.97
782,16626.54
783,16749.68
784,16842.33
785,16912.51
786,16994.93
787,17125.75
788,17321.25
789,17564.73
790,17836.38
791,18119.88
792,18406.55
793,18688.72
794,18964.93
795,19251.57
796,19568.24
797,19928.71
798,20324.54
799,20742
800,21172.45
801,21632.83
802,22148.11
803,22738.46
804,23391.84
805,24083.03
806,24788.82
807,25504.03
808,26232.96
809,26978.47
810,27725.5
811,28447.04
812,29115.75
813,29702.33
814,30175.89
815,30505.86
816,30672.09
817,30665.22
818,30477.12
819,30128.74
820,29677.98
821,29185.01
822,28693.63
823,28221.86
824,27785.44
825,27392.3
826,27035.25
827,26705.39
828,26404.53
829,26160.03
830,26003.07
831,25955.42
832,26011.14
833,26159.18
834,26382.87
835,26645.33
836,26904.92
837,27130.32
838,27336.65
839,27552.07
840,27798.14
841,28060
842,28310.29
843,28527.15
844,28726.39
845,28939.46
846,29195.57
847,29504.62
848,29866.94
849,30283.72
850,30765.38
851,31327.75
852,31986.46
853,32753.18
854,33636.86
855,34645.54
856,35773.48
857,37003.86
858,38316.69
859,39635.55
860,40831.6
861,41774.75
862,42362.67
863,42522.65
864,42184.71
865,41328.34
866,39993.75
867,38225.82
868,36110.86
869,33792.96
870,31420.7
871,29125.55
872,27011.68
873,25180.52
874,23680.59
875,22464.75
876,21475.78
877,20669.3
878,20027.3
879,19534.91
880,19172.64
881,18910.46
882,18716.8
883,18565.46
884,18444.3
885,18343.38
886,18256.5
887,18188.36
888,18145.63
889,18126.5
890,18101.87
891,18037.05
892,17909.69
893,17742.02
894,17566.33
895,17407.35
896,17259.58
897,17109.97
898,16950.03
899,16791.36
900,16651.07
901,16543.1
902,16465.89
903,16413.27
904,16378.81
905,16355.02
906,16334.01
907,16310.55
908,16294.5
909,16301.01
910,16342.97
911,16418.93
912,16522.08
913,16645.6
914,16782.76
915,16926.88
916,17072.04
917,17217.75
918,17365.82
919,17517.68
920,17671.55
921,17824.21
922,17973.18
923,18121.85
924,18276.44
925,18440.85
926,18599.69
927,18728.02
928,18804.17
929,18835.91
930,18846.19
931,18854.82
932,18851.77
933,18811.15
934,18711.25
935,18571.54
936,18433.99
937,18336.32
938,18271.71
939,18208.41
940,18117.38
941,17999.72
942,17873.68
943,17756.21
944,17648.22
945,17541.48
946,17428.88
947,17316.92
948,17219.94
949,17150.76
950,17104.66
951,17066.71
952,17022.61
953,16966.58
954,16897.76
955,16816.38
956,16732.6
957,16662.42
958,16619.66
959,16594.85
960,16565.1
961,16509.46
962,16427.83
963,16331.99
964,16234.46
965,16153.35
966,16109.88
967,16120.56
968,16157.03
969,16166.51
970,16103.82
971,15995.37
972,15905.47
973,15890.11
974,15929.09
975,15963.31
976,15942.46
977,15892.59
978,15877.36
979,15950.2
980,16081.3
981,16201.58
982,16254.35
983,16277.5
984,16351.46
985,16544.01
986,16832.29
987,17154.81
988,17460.07
989,17763.58
990,18107.75
991,18528.17
992,19017.62
993,19552.79
994,20114.79
995,20710.18
996,21354.5
997,22049.96
998,22729.08
999,23301.56
1000,23694.35
1001,23918.77
1002,24011.42
1003,23996.61
1004,23844
1005,23508.08
1006,22955.88
1007,22252
1008,21506.62
1009,20818.88
1010,20209.75
1011,19667.87
1012,19185.02
1013,18772.35
1014,18448.07
1015,18224.44
1016,18083.22
1017,17996.38
1018,17943.21
1019,17935.39
1020,17993.57
1021,18125.35
1022,18289.11
1023,18431.5
1024,18519.47
1025,18585.68
1026,18675.98
1027,18815.04
1028,18969.46
1029,19095.96
1030,19165.87
1031,19184.34
1032,19161.32
1033,19107.72
1034,19036.37
1035,18960.25
1036,18887.37
1037,18817.51
1038,18749.59
1039,18679.07
1040,18596.58
1041,18492.72
1042,18368.68
1043,18237.92
1044,18114.32
1045,18005.81
1046,17914.61
1047,17842.33
1048,17784.47
1049,17731.67
1050,17674.8
1051,17609.7
1052,17535.41
1053,17452.75
1054,17377.79
1055,17334.76
1056,17342.86
1057,17385.69
1058,17431.72
1059,17455.11
1060,17461.29
1061,17466.19
1062,17482.01
1063,17505.54
1064,17529.49
1065,17550.82
1066,17579.99
1067,17630.23
1068,17706.54
1069,17793.68
1070,17873.26
1071,17930.59
1072,17958.09
1073,17949.24
1074,17914.55
1075,17889.8
1076,17911.99
1077,17988.55
1078,18092.75
1079,18197.2
1080,18300.05
1081,18422.24
1082,18583.85
1083,18783.07
1084,19003.15
1085,19228.58
1086,19458.21
1087,19698.31
1088,19957.42
1089,20257.88
1090,20627.37
1091,21088.43
1092,21640.1
1093,22274.88
1094,23003.97
1095,23899.09
1096,25044.23
1097,26507.96
1098,28322.64
1099,30515.2
1100,33088.14
1101,36002.44
1102,39214.5
1103,42664.89
1104,46274.48
1105,49954.84
1106,53463.72
1107,56419.11
1108,58463.44
1109,59601.04
1110,60074.48
1111,60090.69
1112,59543.09
1113,58177.95
1114,55818.45
1115,52696.14
1116,49176.2
1117,45579.74
1118,42069.32
1119,38772.61
1120,35788.81
1121,33148.12
1122,30870.33
1123,28958.82
1124,27389.6
1125,26135.46
1126,25152.71
1127,24378.43
1128,23750.15
1129,23232.16
1130,22810.34
1131,22472.59
1132,22220.45
1133,22063.02
1134,22005.05
1135,22024.66
1136,22090.04
1137,22177.56
1138,22295.51
1139,22459.87
1140,22680.23
1141,22950.22
1142,23261.1
1143,23609.82
1144,24002.78
1145,24446.69
1146,24932.36
1147,25433.12
1148,25924.7
1149,26429.35
1150,27003.49
1151,27694.3
1152,28468.55
1153,29254.43
1154,29993.92
1155,30697.48
1156,31396.29
1157,32111.35
1158,32833.26
1159,33546.95
1160,34237.98
1161,34893.06
1162,35498.57
1163,36026.13
1164,36429.6
1165,36664.25
1166,36722.29
1167,36624.48
1168,36389.58
1169,36014
1170,35483.3
1171,34787.09
1172,33934.55
1173,32940.69
1174,31831.99
1175,30666.86
1176,29508.97
1177,28398.07
1178,27333.22
1179,26310.57
1180,25350.87
1181,24500.67
1182,23803.09
1183,23246.1
1184,22781.98
1185,22370.19
1186,22019.55
1187,21757.99
1188,21606.19
1189,21558.78
1190,21604.56
1191,21725.07
1192,21886.98
1193,22055.66
1194,22214.71
1195,22370.1
1196,22528.94
1197,22695.4
1198,22871.5
1199,23058.14
1200,23248.73
1201,23433.45
1202,23603.02
1203,23750.33
1204,23868.79
1205,23962.39
1206,24057.53
1207,24182.83
1208,24345.05
1209,24524.14
1210,24700.55
1211,24882.96
1212,25100.18
1213,25374.88
1214,25686.71
1215,25998.07
1216,26294.11
1217,26638.33
1218,27110.64
1219,27740.32
1220,28462.27
1221,29203.63
1222,29956.93
1223,30783.44
1224,31743.62
1225,32855.34
1226,34111.39
1227,35505.74
1228,37039.96
1229,38718.01
1230,40528.81
1231,42422.15
1232,44342.09
1233,46264.19
1234,48208.18
1235,50194.64
1236,52206.83
1237,54199.08
1238,56126.73
1239,57956.9
1240,59661.52
1241,61205.31
1242,62529.08
1243,63569.1
1244,64301.86
1245,64772.53
1246,65034.15
1247,65161.08
1248,65247.19
1249,65372.5
1250,65499.64
1251,65534.63
1252,65416.17
1253,65208.69
1254,65006.3
1255,64880.57
1256,64860.44
1257,64967.43
1258,65162.15
1259,65345.62
1260,65429.29
1261,65435.63
1262,65443.04
1263,65487.51
1264,65438.29
1265,65124.82
1266,64470.98
1267,63577.78
1268,62562.76
1269,61479.22
1270,60319.42
1271,59075.68
1272,57760.04
1273,56393.98
1274,55004.4
1275,53636.98
1276,52341.55
1277,51157.79
1278,50108.13
1279,49211.42
1280,48452.34
1281,47786.96
1282,47176.47
1283,46621.95
1284,46140.68
1285,45741.93
1286,45411.58
1287,45131.04
1288,44872.47
1289,44595.29
1290,44261.63
1291,43877.96
1292,43480.3
1293,43096
1294,42706.59
1295,42279.68
1296,41810.29
1297,41352.93
1298,40968.19
1299,40675.67
1300,40453.17
1301,40286.61
1302,40241.46
1303,40421.29
1304,40900.53
1305,41656.52
1306,42647.2
1307,43864.69
1308,45351.49
1309,47155.46
1310,49341.17
1311,51984.66
1312,55099.2
1313,58394.28
1314,61488.11
1315,64046.34
1316,65831.17
1317,66634.18
1318,66599.21
1319,66194.08
1320,65856.52
1321,65742.44
1322,65892.47
1323,66258.3
1324,66554.3
1325,66466.02
1326,66002.72
1327,65551.16
1328,65470.83
1329,65696.12
1330,65941.82
1331,66010.48
1332,66005.16
1333,66088.73
1334,66277.35
1335,66381.49
1336,66224.91
1337,65942.03
1338,65857.57
1339,66130.79
1340,66253.95
1341,65558.78
1342,63686.96
1343,60774.75
1344,57017.71
1345,52800.93
1346,48639.39
1347,44963.41
1348,41819.62
1349,39148.95
1350,36884.52
1351,34945.95
1352,33255.63
1353,31792.21
1354,30575.08
1355,29610.94
1356,28844.09
1357,28201.23
1358,27632.91
1359,27131.47
1360,26693.93
1361,26323.68
1362,26028.71
1363,25812.39
1364,25656.72
1365,25537.79
1366,25435.12
1367,25334.02
1368,25223.23
1369,25127.57
1370,25096.53
1371,25161.43
1372,25276.51
1373,25376.8
1374,25437.6
1375,25495.91
1376,25591.31
1377,25733.85
1378,25915.58
1379,26126.1
1380,26347.36
1381,26559.96
1382,26757.93
1383,26953.13
1384,27156.73
1385,27362.83
1386,27556.8
1387,27734.44
1388,27922
1389,28149.95
1390,28415.13
1391,28678.1
1392,28901.22
1393,29071.23
1394,29184.79
1395,29233.83
1396,29199.61
1397,29063.85
1398,28841
1399,28572.84
1400,28291.36
1401,27977.2
1402,27596.04
1403,27143.47
1404,26664.37
1405,26202.17
1406,25736.21
1407,25206.53
1408,24590.91
1409,23993.4
1410,23539.99
1411,23233.3
1412,22933.22
1413,22516.7
1414,22030.31
1415,21590.85
1416,21255.48
1417,20951.92
1418,20597.8
1419,20213.4
1420,19898.44
1421,19720.71
1422,19606.88
1423,19448.9
1424,19223.34
1425,19023.05
1426,18934.97
1427,18930.06
1428,18923.34
1429,18868.42
1430,18813.83
1431,18818.99
1432,18887.27
1433,18975.06
1434,19048.84
1435,19125.7
1436,19235.9
1437,19372.73
1438,19477.77
1439,19500.49
1440,19483.95
1441,19515.78
1442,19633.36
1443,19756.54
1444,19795.36
1445,19764.8
1446,19761.76
1447,19855.03
1448,19995.19
1449,20105.58
1450,20168.06
1451,20236.16
1452,20353.04
1453,20465.49
1454,20482.24
1455,20375.02
1456,20235.29
1457,20157.07
1458,20115.62
1459,20012.31
1460,19787.15
1461,19496.64
1462,19217.18
1463,18998.45
1464,18865.51
1465,18825.38
1466,18807.87
1467,18722.86
1468,18557.28
1469,18400.63
1470,18337.47
1471,18369.85
1472,18465.22
1473,18589.13
1474,18703.75
1475,18777.54
1476,18848.46
1477,18995.65
1478,19247.7
1479,19497.13
1480,19621.59
1481,19620.14
1482,19590.26
1483,19602.44
1484,19616.68
1485,19569.22
1486,19443.96
1487,19276.05
1488,19098.37
1489,18919.46
1490,18740.32
1491,18567.76
1492,18416.59
1493,18300
1494,18215.91
1495,18155.96
1496,18110.23
1497,18066.13
1498,18011.97
1499,17946.39
1500,17873.52
1501,17800.94
1502,17743.92
1503,17715.52
1504,17691.6
1505,17624.2
1506,17494.89
1507,17365.97
1508,17307.33
1509,17302.33
1510,17268
1511,17156.09
1512,17035.66
1513,16993.96
1514,17016.61
1515,16998.78
1516,16864.81
1517,16660.84
1518,16459.85
1519,16292.79
1520,16148.2
1521,16013.69
1522,15880.7
1523,15742
1524,15598.02
1525,15457.68
1526,15329.2
1527,15215.17
1528,15116.47
1529,15032.94
1530,14963.1
1531,14903.57
1532,14841.75
1533,14762.59
1534,14670.63
1535,14595.21
1536,14561.68
1537,14565.55
1538,14592.38
1539,14628.02
1540,14658.68
1541,14675.78
1542,14698.92
1543,14756.9
1544,14863.05
1545,15010.52
1546,15188.77
1547,15374.71
1548,15541.82
1549,15690.82
1550,15857.49
1551,16070.22
1552,16307.19
1553,16531.08
1554,16732.77
1555,16937.78
1556,17169.95
1557,17434.77
1558,17732.38
1559,18070.34
1560,18464.74
1561,18928.04
1562,19454.52
1563,20034.17
1564,20676.26
1565,21410.21
1566,22255.58
1567,23189.39
1568,24179.37
1569,25216.84
1570,26315.07
1571,27468.3
1572,28603.24
1573,29634.36
1574,30509.98
1575,31205.75
1576,31689.14
1577,31901.86
1578,31788.8
1579,31392.23
1580,30820.79
1581,30147.47
1582,29358.16
1583,28439.1
1584,27502.12
1585,26728.7
1586,26193.45
1587,25765.91
1588,25315.3
1589,24878.9
1590,24568.01
1591,24409.49
1592,24302.17
1593,24149.78
1594,23942.43
1595,23699.46
1596,23416.83
1597,23062.89
1598,22616.82
1599,22108.6
1600,21578.74
1601,21018.71
1602,20376.14
1603,19637.69
1604,18910.86
1605,18315.96
1606,17858.33
1607,17467.19
1608,17085.12
1609,16685.93
1610,16255.36
1611,15841.72
1612,15521.92
1613,15314.74
1614,15151.15
1615,14966.73
1616,14758.53
1617,14543.38
1618,14333.04
1619,14133.9
1620,13951.82
1621,13791.61
1622,13656.83
1623,13537.06
1624,13411.89
1625,13269.4
1626,13116.92
1627,12964.53
1628,12823.69
1629,12706.28
1630,12611.61
1631,12521.06
1632,12420.85
1633,12326.52
1634,12260.44
1635,12210.12
1636,12131.04
1637,12001
1638,11863.54
1639,11767.75
1640,11704.41
1641,11631.16
1642,11532.55
1643,11438.92
1644,11376.29
1645,11323.11
1646,11243.27
1647,11136.51
1648,11038.93
1649,10969.29
1650,10889.03
1651,10755.66
1652,10598.44
1653,10488.84
1654,10455.3
1655,10452.36
1656,10434.44
1657,10393.18
1658,10332.92
1659,10267.02
1660,10217.45
1661,10188.91
1662,10137.47
1663,10020.82
1664,9886.354
1665,9827.557
1666,9860.062
1667,9884.673
1668,9822.511
1669,9722.955
1670,9665.579
1671,9657.774
1672,9650.309
1673,9617.29
1674,9586.152
1675,9581.456
1676,9563.913
1677,9471.635
1678,9325.017
1679,9234.456
1680,9266.72
1681,9343.207
1682,9367.055
1683,9326.273
1684,9255.438
1685,9186.824
1686,9148.702
1687,9156.575
1688,9175.631
1689,9162.024
1690,9120.247
1691,9088.511
1692,9083.701
1693,9082.748
1694,9064.241
1695,9036.834
1696,9018.22
1697,9016.625
1698,9032.191
1699,9054.57
1700,9051.264
1701,8998.356
1702,8941.976
1703,8950.868
1704,9011.231
1705,9029.527
1706,8955.188
1707,8850.839
1708,8786.283
1709,8764.032
1710,8758.72
1711,8752.98
1712,8737.91
1713,8708.949
1714,8671.842
1715,8634.038
1716,8603.268
1717,8586.727
1718,8574.501
1719,8538.38
1720,8468.95
1721,8408.682
1722,8398.845
1723,8411.957
1724,8392.86
1725,8338.885
1726,8302.072
1727,8307.179
1728,8304.266
1729,8245.318
1730,8170.583
1731,8152.634
1732,8192.702
1733,8223.678
1734,8204.523
1735,8158.919
1736,8117.149
1737,8096.805
1738,8109.569
1739,8143.009
1740,8164.722
1741,8163.376
1742,8168.967
1743,8202.755
1744,8223.479
1745,8178.626
1746,8105.307
1747,8101.136
1748,8184.586
1749,8250.674
1750,8219.895
1751,8142.617
1752,8091.023
1753,8068.709
1754,8043.194
1755,8005.358
1756,7974.035
1757,7961.227
1758,7956.693
1759,7948.333
1760,7935.235
1761,7920.301
1762,7896.635
1763,7849.075
1764,7780.365
1765,7726.743
1766,7715.265
1767,7719.035
1768,7700.065
1769,7652.798
1770,7590.92
1771,7530.249
1772,7488.92
1773,7475.862
1774,7475.058
1775,7466.289
1776,7428.813
1777,7344.427
1778,7238.53
1779,7170.855
1780,7165.891
1781,7188.84
1782,7210.743
1783,7242.541
1784,7299.169
1785,7357.222
1786,7376.941
1787,7364.83
1788,7372.411
1789,7417.827
1790,7449.844
1791,7424.651
1792,7363.6
1793,7304.357
1794,7277.245
1795,7306.64
1796,7365.634
1797,7372.012
1798,7292.641
1799,7205.602
1800,7183.06
1801,7206.031
1802,7232.137
1803,7239.965
1804,7220.896
1805,7189.659
1806,7186.226
1807,7218.286
1808,7222.609
1809,7152.555
1810,7071.513
1811,7061.433
1812,7103.829
1813,7128.818
1814,7121.226
1815,7121.253
1816,7147.297
1817,7172.058
1818,7170.972
1819,7148.291
1820,7114.717
1821,7079.508
1822,7051.412
1823,7041.378
1824,7061.756
1825,7098.652
1826,7098.06
1827,7028.334
1828,6931.239
1829,6856.837
1830,6828.829
1831,6857.577
1832,6904.458
1833,6902.197
1834,6857.299
1835,6859.649
1836,6931.366
1837,6949.383
1838,6829.951
1839,6700.469
1840,6709.129
1841,6802.635
1842,6848.577
1843,6831.639
1844,6824.524
1845,6846.386
1846,6843.539
1847,6793.102
1848,6753.536
1849,6772.76
1850,6808.854
1851,6807.216
1852,6792.632
1853,6821.194
1854,6869.658
1855,6854.454
1856,6768.423
1857,6706.134
1858,6721.815
1859,6765.741
1860,6787.156
1861,6784.639
1862,6767.73
1863,6740.286
1864,6704.632
1865,6673.764
1866,6667.173
1867,6678.179
1868,6670.821
1869,6634.715
1870,6608.914
1871,6619.033
1872,6634.12
1873,6622.545
1874,6604.027
1875,6609.451
1876,6622.413
1877,6603.742
1878,6550.46
1879,6490.17
1880,6459.286
1881,6504.127
1882,6623.178
1883,6715.595
1884,6706.254
1885,6645.239
1886,6597.912
1887,6572.83
1888,6559.631
1889,6548.722
1890,6531.382
1891,6506.56
1892,6479.625
1893,6463.218
1894,6478.358
1895,6519.761
1896,6532.778
1897,6485.026
1898,6422.189
1899,6394.786
1900,6413.795
1901,6474.938
1902,6543.592
1903,6575.529
1904,6564.635
1905,6529.138
1906,6491.505
1907,6477.132
1908,6484.608
1909,6476.76
1910,6440.862
1911,6416.435
1912,6427.175
1913,6434.476
1914,6404.808
1915,6373.257
1916,6382.933
1917,6411.93
1918,6417.203
1919,6397.678
1920,6374.933
1921,6356.188
1922,6337.176
1923,6314.526
1924,6286.491
1925,6268.143
1926,6299.584
1927,6377.512
1928,6403.187
1929,6318.158
1930,6218.167
1931,6198.745
1932,6236.592
1933,6283.767
1934,6328.908
1935,6371.475
1936,6390.583
1937,6358.289
1938,6284.82
1939,6206.029
1940,6157.183
1941,6170.813
1942,6223.26
1943,6226.424
1944,6159.139
1945,6108.303
1946,6128.836
1947,6192.709
1948,6261.67
1949,6296.932
1950,6279.268
1951,6258.73
1952,6282.113
1953,6309.845
1954,6290.556
1955,6255.045
1956,6255.751
1957,6266.553
1958,6230.693
1959,6177.029
1960,6181.172
1961,6222.352
1962,6209.248
1963,6150.796
1964,6151.042
1965,6216.481
1966,6234.913
1967,6169.974
1968,6105.477
1969,6098.632
1970,6142.034
1971,6199.572
1972,6187.309
1973,6079.024
1974,6019.393
1975,6103.062
1976,6168.948
1977,6075.219
1978,5964.881
1979,5996.979
1980,6064.642
1981,6016.834
1982,5913.733
1983,5874.742
1984,5897.432
1985,5930.347
1986,5949.928
1987,5946.822
1988,5912.979
1989,5844.392
1990,5778.287
1991,5774.469
1992,5812.297
1993,5812.367
1994,5765.657
1995,5724.93
1996,5710.537
1997,5708.804
1998,5712.004
1999,5720.363
2000,5724.655
2001,5703.934
2002,5660.567
2003,5629.753
2004,5627.66
2005,5637.788
2006,5645.324
2007,5643.036
2008,5637.002
2009,5656.066
2010,5698.498
2011,5697.155
2012,5625.903
2013,5563.516
2014,5563.313
2015,5587.839
2016,5596.736
2017,5574.438
2018,5526.836
2019,5506.417
2020,5544.75
2021,5593.659
2022,5602.394
2023,5553.497
2024,5465.393
2025,5447.639
2026,5557.225
2027,5628.17
2028,5533.417
2029,5419.688
2030,5426.723
2031,5481.336
2032,5487.076
2033,5421.447
2034,5308.413
2035,5277.904
2036,5405.114
2037,5494.668
2038,5393.293
2039,5298.733
2040,5380.12
2041,5445.59
2042,5324.898
2043,5184.527
2044,5198.66
2045,5329.909
2046,5485.046
2047,5532.492
2048,5409.956
2049,5295.071
2050,5323.538
2051,5366.482
2052,5316.863
2053,5269.608
2054,5300.036
2055,5334.448
2056,5312.146
2057,5268.667
2058,5245.084
2059,5259.597
2060,5302.506
2061,5310.074
2062,5262.348
2063,5243.479
2064,5281.634
2065,5275.994
2066,5193.363
2067,5141.48
2068,5170.775
2069,5219.123
2070,5229.576
2071,5168.61
2072,5068.344
2073,5040.292
2074,5100.388
2075,5149.291
2076,5133.915
2077,5059.2
2078,4995.663
2079,5060.347
2080,5184.297
2081,5164.371
2082,5045.063
2083,5028.7
2084,5079.585
2085,5035.758
2086,4950.158
2087,4964.863
2088,5017.44
2089,4981.805
2090,4923.591
2091,4950.61
2092,5002.241
2093,4990.654
2094,4946.686
2095,4919.031
2096,4906.596
2097,4905.137
2098,4932.886
2099,4985.802
2100,4998.063
2101,4947.159
2102,4911.152
2103,4928.061
2104,4954.776
2105,4968.02
2106,4978.071
2107,4962.334
2108,4868.513
2109,4768.082
2110,4822.004
2111,4977.969
2112,5053.583
2113,5029.565
2114,4973.384
2115,4931.496
2116,4929.309
2117,4929.724
2118,4888.115
2119,4811.742
2120,4742.054
2121,4783.575
2122,4946.728
2123,5002.971
2124,4881.844
2125,4839.678
2126,4942.931
2127,4970.926
2128,4874.157
2129,4789.616
2130,4759.657
2131,4747.201
2132,4708.981
2133,4615.559
2134,4550.307
2135,4602.706
2136,4657.474
2137,4601.585
2138,4548.121
2139,4583.367
2140,4606.295
2141,4552.182
2142,4471.874
2143,4433.456
2144,4504.008
2145,4593.271
2146,4490.907
2147,4311.037
2148,4339.133
2149,4472.057
2150,4468.772
2151,4338.744
2152,4184.935
2153,4150.008
2154,4266.222
2155,4285.526
2156,4141.244
2157,4120.073
2158,4255.97
2159,4276.094
2160,4146.305
2161,4023.599
2162,3989.504
2163,4060.853
2164,4129.903
2165,4093.339
2166,4024.073
2167,3994.966
2168,3984.433
2169,3965.699
2170,3925.612
2171,3868.38
2172,3814.798
2173,3783.758
2174,3786.256
2175,3788.96
2176,3746.185
2177,3645.003
2178,3516.524
2179,3485.515
2180,3563.334
2181,3546.058
2182,3427.815
2183,3426.125
2184,3509.372
2185,3495.363
2186,3450.46
2187,3496.317
2188,3514.695
2189,3435.081
2190,3465.933
2191,3627.242
2192,3595.335
2193,3354.902
2194,3195.387
2195,3198.813
2196,3305.664
2197,3392.292
2198,3367.165
2199,3313.543
2200,3279.873
2201,3186.901
2202,3060.571
2203,3045.624
2204,3093.515
2205,3053.491
2206,2987.518
2207,2991.393
2208,2982.9
2209,2940.445
2210,3029.862
2211,3174.976
2212,3038.565
2213,2782.085
2214,2815.569
2215,2971.488
2216,2966.731
2217,2855
2218,2731.033
2219,2641.9
2220,2632.609
2221,2735.423
2222,2831.094
2223,2762.313
2224,2607.036
2225,2495.812
2226,2506.918
2227,2620.306
2228,2695.41
2229,2652.242
2230,2491.51
2231,2398.066
2232,2517.936
2233,2616.214
2234,2537.016
2235,2400.795
2236,2349.483
2237,2485.681
2238,2630.868
2239,2557.053
2240,2397.097
2241,2301.165
2242,2272.778
2243,2275.279
2244,2252.688
2245,2192.257
2246,2115.929
2247,2090.452
2248,2148.13
2249,2224.988
2250,2251.266
2251,2173.435
2252,2027.266
2253,1900.515
2254,1895.659
2255,2010.244
2256,2036.811
2257,1928.127
2258,1812.267
2259,1772.908
2260,1835.255
2261,1905.77
2262,1949.259
2263,2058.031
2264,2068.574
2265,1709.925
2266,1449.703
2267,1712.826
2268,1978.719
2269,1941.6
2270,1794.786
2271,1689.852
2272,1694.039
2273,1708.14
2274,1662.425
2275,1638.839
2276,1627.733
2277,1536.37
2278,1426.875
2279,1397.338
2280,1442.721
2281,1505.284
2282,1490.102
2283,1386.014
2284,1247.397
2285,1177.7
2286,1222.565
2287,1297.303
2288,1284.424
2289,1111.141
2290,1053.236
2291,1259.961
2292,1307.846
2293,1165.439
2294,1210.993
2295,1237.818
2296,1002.837
2297,934.8245
2298,1097.265
2299,1028.301
2300,901.1104
