400,34314.69
401,34017.4
402,33749.84
403,33553.57
404,33412.59
405,33291.9
406,33157.89
407,32995.8
408,32808.36
409,32598.93
410,32377.33
411,32169.74
412,32004.63
413,31904.04
414,31843.02
415,31775.07
416,31655.22
417,31475.25
418,31271.86
419,31084.06
420,30940.91
421,30838.97
422,30767.97
423,30717.94
424,30680.23
425,30647.08
426,30610.89
427,30566.68
428,30513.47
429,30450.6
430,30378.9
431,30305.47
432,30239.01
433,30187.23
434,30146.08
435,30103.11
436,30045.91
437,29968.62
438,29877.1
439,29778.39
440,29677.37
441,29568.33
442,29442.35
443,29291.5
444,29122.46
445,28953.61
446,28803.38
447,28679.4
448,28567.68
449,28451.8
450,28319.74
451,28182.68
452,28059.6
453,27968.23
454,27908.35
455,27864.32
456,27820.23
457,27763.21
458,27686.6
459,27584.62
460,27453.59
461,27301.56
462,27140.58
463,26982.19
464,26831.51
465,26688.21
466,26551.75
467,26420.71
468,26291.92
469,26161.99
470,26028.55
471,25894.43
472,25764.14
473,25641.96
474,25529
475,25423.87
476,25325.05
477,25231.14
478,25140.85
479,25052.89
480,24966.46
481,24882.97
482,24804.46
483,24732.7
484,24666.2
485,24601.08
486,24533.52
487,24461.96
488,24388.53
489,24315.69
490,24243.51
491,24162.75
492,24061.94
493,23931.79
494,23785.21
495,23648.21
496,23546.16
497,23481.19
498,23424.44
499,23345.23
500,23223.21
501,23069.44
502,22900.92
503,22733.86
504,22579.79
505,22447.96
506,22346.96
507,22271.12
508,22200.16
509,22113.36
510,22000.24
511,21873.45
512,21748.72
513,21639.42
514,21546.48
515,21466.65
516,21396.35
517,21326.53
518,21244.09
519,21136.1
520,21002.09
521,20861.53
522,20735.47
523,20636.84
524,20549.37
525,20450.32
526,20320.08
527,20164.62
528,20003.03
529,19853.91
530,19724.58
531,19610.1
532,19505
533,19405.49
534,19311.65
535,19224.07
536,19143.05
537,19067.4
538,18995.46
539,18925.46
540,18854.33
541,18778.05
542,18692.8
543,18601.54
544,18516.84
545,18451.86
546,18413.59
547,18390.66
548,18368.43
549,18334.05
550,18285.8
551,18226.55
552,18159.13
553,18086.35
554,18010.95
555,17935.68
556,17865.13
557,17806.92
558,17768.93
559,17754.1
560,17748.46
561,17734.46
562,17697.5
563,17644.65
564,17592.9
565,17558.29
566,17539.48
567,17519.34
568,17480.45
569,17418.01
570,17349.57
571,17294.82
572,17265.88
573,17247.89
574,17219.95
575,17164.45
576,17087.86
577,17007.88
578,16941.48
579,16893.2
580,16856.42
581,16824.18
582,16790.99
583,16753.83
584,16709.94
585,16658.22
586,16603.18
587,16550.47
588,16504.94
589,16466.03
590,16430.9
591,16397
592,16366.57
593,16345.61
594,16340.06
595,16346.05
596,16345.22
597,16318.16
598,16256.25
599,16181.01
600,16119.11
601,16092.03
602,16093.08
603,16105.85
604,16114.97
605,16116.85
606,16115.47
607,16114.77
608,16112.78
609,16100.64
610,16069.18
611,16017.88
612,15964.55
613,15929.22
614,15925.64
615,15942.47
616,15962.09
617,15968.92
618,15962.61
619,15950.01
620,15937.83
621,15930.23
622,15929.18
623,15936.47
624,15947.67
625,15949.17
626,15926.73
627,15877.15
628,15826.32
629,15804.71
630,15835.19
631,15904.15
632,15986.86
633,16060.19
634,16114.72
635,16148.53
636,16160.3
637,16158.79
638,16162.22
639,16188.87
640,16242.56
641,16304.08
642,16352.25
643,16372.79
644,16370.34
645,16352.8
646,16327.4
647,16298.07
648,16267.71
649,16239.06
650,16213.52
651,16191.78
652,16174.34
653,16158.82
654,16140.22
655,16113.53
656,16076.6
657,16031.59
658,15980.97
659,15926.28
660,15866.69
661,15801.04
662,15728.9
663,15653.16
664,15577.58
665,15505.73
666,15439.95
667,15382.03
668,15333.28
669,15288.19
670,15236.21
671,15167.03
672,15081.14
673,14992
674,14913.7
675,14854.69
676,14812.55
677,14783.65
678,14762.28
679,14736.25
680,14692.12
681,14621.51
682,14542.71
683,14482.8
684,14465.09
685,14479.46
686,14497.9
687,14493.76
688,14464.34
689,14426.95
690,14399.15
691,14386
692,14376.33
693,14358.04
694,14325.39
695,14285.46
696,14246.82
697,14216.41
698,14196
699,14186.33
700,14187.66
701,14197.96
702,14214.43
703,14234.32
704,14255.02
705,14274.01
706,14288.78
707,14297.07
708,14296.78
709,14285.99
710,14267.54
711,14249.64
712,14240.7
713,14243.64
714,14252.09
715,14258.79
716,14260.04
717,14261.25
718,14269.23
719,14287.91
720,14309.84
721,14324.75
722,14325.28
723,14321.45
724,14329.85
725,14364.67
726,14417.01
727,14465.03
728,14487.88
729,14482.93
730,14462.4
731,14438.74
732,14419.33
733,14405.61
734,14398.65
735,14396.96
736,14394.78
737,14385.92
738,14368.62
739,14351.78
740,14345.89
741,14355.96
742,14367.56
743,14361.94
744,14325.96
745,14276.11
746,14238.56
747,14235.39
748,14256.21
749,14275.3
750,14268.89
751,14237.53
752,14197.98
753,14166.67
754,14148.16
755,14136.1
756,14123.85
757,14109.12
758,14095.14
759,14085.47
760,14081.21
761,14079.22
762,14075.94
763,14068.97
764,14058.66
765,14045.79
766,14032.29
767,14024.02
768,14027.65
769,14047.25
770,14074.58
771,14097.78
772,14107.01
773,14105.8
774,14103.14
775,14107.13
776,14117.32
777,14128.52
778,14136.18
779,14145.4
780,14168.38
781,14216.6
782,14282.32
783,14339.28
784,14360.97
785,14342.84
786,14308.08
787,14281.55
788,14278.02
789,14295.59
790,14330.76
791,14378.16
792,14428.42
793,14471.64
794,14500.82
795,14517.32
796,14523.98
797,14524.73
798,14527.58
799,14541.5
800,14573.12
801,14617.21
802,14664.81
803,14707.56
804,14741.14
805,14762.86
806,14771.38
807,14777.34
808,14797.64
809,14847.44
810,14919.95
811,14993.89
812,15048.68
813,15080.45
814,15099.18
815,15115.21
816,15136.44
817,15168.35
818,15216.07
819,15277.06
820,15339.04
821,15389.18
822,15423.99
823,15454.61
824,15493.39
825,15543.32
826,15589.27
827,15614.01
828,15610.7
829,15597.25
830,15595.19
831,15617.59
832,15652.31
833,15682.63
834,15696.66
835,15700.35
836,15703.7
837,15715.1
838,15735.61
839,15764.25
840,15799.31
841,15835.21
842,15865
843,15883.4
844,15896.3
845,15914.23
846,15946.04
847,15986.39
848,16022.9
849,16044.9
850,16060.21
851,16087.41
852,16143.19
853,16217.86
854,16283.54
855,16313.54
856,16306.11
857,16279.54
858,16252.26
859,16233.4
860,16223.52
861,16222.71
862,16228.67
863,16236.49
864,16241.19
865,16240.44
866,16235.08
867,16226.22
868,16217.19
869,16214.47
870,16224.7
871,16248.78
872,16278.5
873,16304.85
874,16321.33
875,16325.98
876,16317.35
877,16297.22
878,16274
879,16256.91
880,16250.7
881,16249.82
882,16247.27
883,16238.24
884,16223.67
885,16205.42
886,16186.49
887,16173.2
888,16172.49
889,16188.84
890,16218.8
891,16257.31
892,16298.06
893,16330.33
894,16342.37
895,16327.57
896,16299.67
897,16277.54
898,16273.76
899,16273.19
900,16253.07
901,16198.99
902,16136.63
903,16103.77
904,16128.2
905,16185.44
906,16233.9
907,16239.89
908,16214.73
909,16185.59
910,16175.06
911,16177.3
912,16175.69
913,16157.16
914,16132.12
915,16120.46
916,16138.67
917,16178.8
918,16222.48
919,16252.36
920,16259.59
921,16239.11
922,16188.99
923,16131.71
924,16101.34
925,16126.53
926,16189.46
927,16249.3
928,16270.08
929,16260.43
930,16251.92
931,16272.67
932,16317.37
933,16362.91
934,16388.44
935,16396.42
936,16402.03
937,16418.84
938,16443.09
939,16461.34
940,16461.85
941,16451.12
942,16446.04
943,16461.77
944,16494.06
945,16527.48
946,16548.21
947,16560.77
948,16580.34
949,16619.63
950,16664.43
951,16684.78
952,16654.55
953,16589.7
954,16530.85
955,16515.31
956,16542.57
957,16590.11
958,16636.24
959,16671.07
960,16691.49
961,16695.4
962,16690.24
963,16688.84
964,16702.86
965,16732.18
966,16770.03
967,16809.62
968,16844.43
969,16868.12
970,16875.06
971,16866.44
972,16847.02
973,16822
974,16799.76
975,16790.33
976,16801.58
977,16823.02
978,16835.16
979,16821.49
980,16789.77
981,16759.19
982,16746.94
983,16754.4
984,16775.88
985,16806.31
986,16845.47
987,16895.16
988,16957.02
989,17031.64
990,17119.16
991,17218.74
992,17323.58
993,17424.64
994,17515.51
995,17604.97
996,17707.11
997,17830.3
998,17952.79
999,18042.99
1000,18079.38
1001,18089.22
1002,18114.46
1003,18185.12
1004,18278.17
1005,18355.88
1006,18385.74
1007,18376.54
1008,18356.27
1009,18349.99
1010,18361.7
1011,18386.65
1012,18419.57
1013,18452.08
1014,18474.67
1015,18481.5
1016,18485.46
1017,18505.46
1018,18555.03
1019,18623.79
1020,18694.78
1021,18754.62
1022,18803.7
1023,18845.65
1024,18884.37
1025,18924.71
1026,18971.72
1027,19026.84
1028,19081.7
1029,19126.3
1030,19158.73
1031,19195.84
1032,19257.07
1033,19348.26
1034,19448.66
1035,19534.58
1036,19592.28
1037,19624.49
1038,19635.58
1039,19634.72
1040,19637.7
1041,19660.25
1042,19701.02
1043,19738.86
1044,19752.64
1045,19746.42
1046,19748.46
1047,19786.32
1048,19859.77
1049,19946.46
1050,20024.41
1051,20083.63
1052,20121.96
1053,20138.6
1054,20143.93
1055,20154.23
1056,20183.5
1057,20229.28
1058,20282.06
1059,20332
1060,20367.48
1061,20376.28
1062,20352.44
1063,20316.18
1064,20294.54
1065,20304.91
1066,20333.33
1067,20359.57
1068,20373.04
1069,20387.2
1070,20419.09
1071,20475.45
1072,20543.29
1073,20607.49
1074,20664.53
1075,20728.09
1076,20812.89
1077,20921.06
1078,21040.14
1079,21157.52
1080,21273.44
1081,21399.65
1082,21547.23
1083,21713.15
1084,21884.73
1085,22051.55
1086,22224.92
1087,22427.44
1088,22676.82
1089,22959.44
1090,23249.57
1091,23526.38
1092,23791.33
1093,24052.16
1094,24311.33
1095,24554.07
1096,24762.16
1097,24923.14
1098,25038.06
1099,25109.89
1100,25140.89
1101,25132.14
1102,25085.03
1103,25015.62
1104,24958.25
1105,24946.29
1106,24970.77
1107,24984.32
1108,24943.42
1109,24868.8
1110,24823.47
1111,24862.2
1112,24968.82
1113,25093.85
1114,25196.34
1115,25281.28
1116,25368.63
1117,25470.55
1118,25571.44
1119,25649.53
1120,25692
1121,25707.67
1122,25708.54
1123,25701.17
1124,25683.1
1125,25650.98
1126,25600.45
1127,25525.99
1128,25422.81
1129,25298.99
1130,25173
1131,25061.65
1132,24962.55
1133,24862.64
1134,24751.53
1135,24635.68
1136,24527.81
1137,24437.9
1138,24365.21
1139,24306.39
1140,24261
1141,24235.8
1142,24238.57
1143,24269.36
1144,24315.51
1145,24363.44
1146,24407.3
1147,24449.72
1148,24494.02
1149,24546.37
1150,24615.07
1151,24705.39
1152,24798.02
1153,24861.84
1154,24875.43
1155,24864.84
1156,24870.53
1157,24913.4
1158,24956.07
1159,24950.55
1160,24882.92
1161,24803.07
1162,24766.52
1163,24780.49
1164,24794.23
1165,24757.38
1166,24677.54
1167,24607.05
1168,24592.29
1169,24621.66
1170,24655.41
1171,24662.33
1172,24652.68
1173,24648.93
1174,24664.65
1175,24688.71
1176,24705.75
1177,24709.69
1178,24710.08
1179,24717.63
1180,24734.04
1181,24751.55
1182,24762.28
1183,24762.16
1184,24749.65
1185,24725.22
1186,24701.96
1187,24697.84
1188,24723.12
1189,24760.6
1190,24787
1191,24792.96
1192,24797.57
1193,24823
1194,24876.54
1195,24947.26
1196,25023.72
1197,25103.45
1198,25190.54
1199,25288.23
1200,25392.59
1201,25496.62
1202,25595.41
1203,25692.03
1204,25791.45
1205,25897.11
1206,26009.24
1207,26127.54
1208,26248.11
1209,26362.68
1210,26463.51
1211,26553.88
1212,26644.95
1213,26745.84
1214,26851.22
1215,26950
1216,27036.58
1217,27124.4
1218,27230.86
1219,27357.97
1220,27479.15
1221,27565.77
1222,27617.56
1223,27664.08
1224,27734.21
1225,27834.92
1226,27960.29
1227,28102.74
1228,28247.24
1229,28376.37
1230,28478.55
1231,28557.4
1232,28619.19
1233,28677.91
1234,28758.43
1235,28883.49
1236,29031.85
1237,29148.17
1238,29188.79
1239,29194.53
1240,29241.11
1241,29374.01
1242,29537.57
1243,29655.77
1244,29701.21
1245,29729.62
1246,29802.04
1247,29923.39
1248,30047.27
1249,30131.28
1250,30180.46
1251,30222.7
1252,30280.7
1253,30356.92
1254,30448.92
1255,30548.35
1256,30635.76
1257,30691.65
1258,30723.57
1259,30765.49
1260,30847
1261,30950.85
1262,31036.13
1263,31075.02
1264,31091.49
1265,31121.89
1266,31179.83
1267,31236.3
1268,31259.16
1269,31249.23
1270,31238.72
1271,31257.33
1272,31305.06
1273,31367.7
1274,31430.66
1275,31478.17
1276,31494.44
1277,31479.21
1278,31458.29
1279,31458.96
1280,31488.71
1281,31538.51
1282,31597.2
1283,31642.91
1284,31649.42
1285,31606.79
1286,31552.57
1287,31532.44
1288,31568.69
1289,31651.47
1290,31767.45
1291,31889.29
1292,31980.31
1293,32012.89
1294,32005
1295,31988.53
1296,31982.21
1297,31976.21
1298,31957.47
1299,31924.44
1300,31887.4
1301,31856.6
1302,31838.17
1303,31836.24
1304,31851.44
1305,31872.91
1306,31887.53
1307,31889.13
1308,31881.87
1309,31871.05
1310,31866.63
1311,31881.68
1312,31925.43
1313,31988.15
1314,32054.39
1315,32110.83
1316,32148.46
1317,32158.92
1318,32135.95
1319,32075.29
1320,31977.3
1321,31872.58
1322,31804.1
1323,31793.42
1324,31804.67
1325,31793.44
1326,31745.26
1327,31680.62
1328,31620.25
1329,31570.06
1330,31528.29
1331,31489.88
1332,31438.95
1333,31357.78
1334,31247.45
1335,31135.43
1336,31048.28
1337,30981
1338,30909.33
1339,30815.43
1340,30708.25
1341,30603.22
1342,30507.53
1343,30415.15
1344,30318.38
1345,30203.3
1346,30051.69
1347,29856.05
1348,29656.52
1349,29505.89
1350,29424.32
1351,29375.87
1352,29320.96
1353,29246.86
1354,29160.23
1355,29068.68
1356,28982.07
1357,28910.82
1358,28858.26
1359,28815.19
1360,28772.09
1361,28731.82
1362,28706.22
1363,28703.91
1364,28718.27
1365,28738.45
1366,28759.18
1367,28784.61
1368,28819.2
1369,28860.11
1370,28899.46
1371,28930.46
1372,28951.24
1373,28961.27
1374,28968.01
1375,28991.11
1376,29048.59
1377,29129.44
1378,29204.91
1379,29254.03
1380,29284.48
1381,29309.93
1382,29326.98
1383,29309.72
1384,29235.39
1385,29122.45
1386,29010.52
1387,28925.63
1388,28853.72
1389,28774.48
1390,28691.82
1391,28635.9
1392,28629.12
1393,28633.65
1394,28587.28
1395,28464.97
1396,28324.87
1397,28233.43
1398,28207.02
1399,28220.05
1400,28247.96
1401,28277.3
1402,28298.21
1403,28314.59
1404,28353.05
1405,28437.81
1406,28544.3
1407,28618.12
1408,28622.45
1409,28579.86
1410,28524.94
1411,28484.95
1412,28478.76
1413,28517.48
1414,28562.84
1415,28556.23
1416,28478.73
1417,28397.38
1418,28384.99
1419,28432
1420,28465.11
1421,28428.29
1422,28344.03
1423,28254.93
1424,28191.82
1425,28169.32
1426,28197.53
1427,28259.57
1428,28325.52
1429,28371.61
1430,28389.11
1431,28373.34
1432,28349.19
1433,28366.44
1434,28460.23
1435,28598.18
1436,28729.87
1437,28829.42
1438,28905.35
1439,28967.56
1440,29016.52
1441,29048.26
1442,29068.4
1443,29105.03
1444,29186.29
1445,29292.54
1446,29366.9
1447,29370.26
1448,29336.92
1449,29318.04
1450,29328.72
1451,29339.72
1452,29323.57
1453,29281.65
1454,29226.92
1455,29172.21
1456,29130.09
1457,29111.04
1458,29102.8
1459,29079.02
1460,29020.3
1461,28928.3
1462,28809.16
1463,28682
1464,28577.87
1465,28518.52
1466,28481.79
1467,28433.62
1468,28360.33
1469,28275.43
1470,28192.59
1471,28113.92
1472,28036.66
1473,27960.35
1474,27888.82
1475,27825.58
1476,27765.22
1477,27697.08
1478,27615.47
1479,27528.09
1480,27444.47
1481,27368.53
1482,27299.65
1483,27236.87
1484,27178.66
1485,27123.36
1486,27070.16
1487,27019.14
1488,26969.59
1489,26916.46
1490,26853.48
1491,26781.23
1492,26709.8
1493,26648.88
1494,26600.77
1495,26564.71
1496,26538.39
1497,26516.81
1498,26495.3
1499,26474.71
1500,26458.8
1501,26451.64
1502,26457.91
1503,26480.42
1504,26499.37
1505,26480.48
1506,26413.12
1507,26351.15
1508,26354.37
1509,26411.59
1510,26457.24
1511,26449.87
1512,26430.29
1513,26452.67
1514,26511.38
1515,26547.6
1516,26520.48
1517,26464.08
1518,26428.55
1519,26428.55
1520,26442.9
1521,26452.1
1522,26450.44
1523,26436.36
1524,26421.4
1525,26431.61
1526,26483.31
1527,26542.9
1528,26563.26
1529,26540.12
1530,26520.72
1531,26543.31
1532,26584.63
1533,26602.65
1534,26586.58
1535,26565.24
1536,26565.9
1537,26593.94
1538,26647.11
1539,26712.41
1540,26762.75
1541,26776.96
1542,26771.12
1543,26773.71
1544,26801.46
1545,26855.75
1546,26932.4
1547,27002.89
1548,27031.56
1549,27023.54
1550,27036.24
1551,27115.83
1552,27232.04
1553,27330.7
1554,27388.9
1555,27422.11
1556,27448.73
1557,27490.21
1558,27567.91
1559,27675.07
1560,27772.73
1561,27829.09
1562,27852.35
1563,27861.88
1564,27879.06
1565,27927.43
1566,28017.73
1567,28109.87
1568,28153.89
1569,28153.6
1570,28162.68
1571,28218.04
1572,28292.94
1573,28349.03
1574,28378.21
1575,28396.88
1576,28418.53
1577,28446.54
1578,28482.15
1579,28522.68
1580,28562.8
1581,28596.4
1582,28615.76
1583,28614.71
1584,28604.47
1585,28605.97
1586,28624.53
1587,28635.61
1588,28615.96
1589,28576.91
1590,28544.98
1591,28531.16
1592,28522.73
1593,28507.98
1594,28491.68
1595,28483.89
1596,28481.8
1597,28467.47
1598,28426.18
1599,28360.18
1600,28276.05
1601,28180.72
1602,28081.43
1603,27985.11
1604,27897.92
1605,27824.43
1606,27751.64
1607,27655.1
1608,27526.15
1609,27390.26
1610,27273.01
1611,27166.55
1612,27047.4
1613,26908.47
1614,26767.35
1615,26638.73
1616,26511.42
1617,26366.35
1618,26196.65
1619,26008.34
1620,25809.44
1621,25612.93
1622,25431.67
1623,25262.94
1624,25092.88
1625,24914.63
1626,24737.3
1627,24569.25
1628,24396.27
1629,24194.17
1630,23970.09
1631,23776.02
1632,23647.92
1633,23530.14
1634,23344.41
1635,23096.07
1636,22867.21
1637,22712.07
1638,22598.82
1639,22482.23
1640,22332.28
1641,22128.14
1642,21880.48
1643,21652.9
1644,21498.14
1645,21382.2
1646,21243.77
1647,21069.1
1648,20892.62
1649,20734.73
1650,20566.87
1651,20356.41
1652,20124.59
1653,19924.39
1654,19780.76
1655,19670.44
1656,19566
1657,19442.94
1658,19279.25
1659,19086.08
1660,18906.44
1661,18766.22
1662,18640.51
1663,18498.82
1664,18338.62
1665,18172.25
1666,18011.39
1667,17866.56
1668,17745.24
1669,17642
1670,17547.25
1671,17441.18
1672,17296.14
1673,17109.41
1674,16932.24
1675,16812.25
1676,16727.54
1677,16629.63
1678,16505.29
1679,16380
1680,16274.86
1681,16191.87
1682,16127.66
1683,16062.04
1684,15965.99
1685,15834.64
1686,15698
1687,15582.25
1688,15486.95
1689,15405.01
1690,15329.95
1691,15255.74
1692,15180.87
1693,15111.94
1694,15052.08
1695,14982.47
1696,14879.5
1697,14759.07
1698,14670.42
1699,14633.49
1700,14602.52
1701,14533.22
1702,14442.3
1703,14368.2
1704,14321.32
1705,14284.92
1706,14244.47
1707,14193.68
1708,14129.21
1709,14059.43
1710,13997.14
1711,13943.48
1712,13887.33
1713,13823.34
1714,13762.71
1715,13715.67
1716,13666.1
1717,13587.76
1718,13491.96
1719,13430.25
1720,13428.43
1721,13439.21
1722,13410.48
1723,13340.42
1724,13249.19
1725,13162.2
1726,13110.1
1727,13101.9
1728,13091.78
1729,13035.92
1730,12959.31
1731,12912.66
1732,12902.44
1733,12892.73
1734,12860.74
1735,12816.98
1736,12773.33
1737,12723.47
1738,12656.26
1739,12589.26
1740,12563.74
1741,12588.48
1742,12609.06
1743,12578.75
1744,12519.93
1745,12472.71
1746,12445.05
1747,12422.81
1748,12395.46
1749,12358.71
1750,12309.56
1751,12247.86
1752,12175.73
1753,12110.44
1754,12076.66
1755,12075.34
1756,12079.39
1757,12068.86
1758,12047.05
1759,12021.11
1760,11998.8
1761,11987.35
1762,11979.55
1763,11955.96
1764,11913.24
1765,11878.55
1766,11870.14
1767,11854.84
1768,11792.06
1769,11705
1770,11653.38
1771,11655.5
1772,11677.54
1773,11690.46
1774,11686.51
1775,11663.68
1776,11633.53
1777,11612.19
1778,11606.19
1779,11614.25
1780,11618.54
1781,11574.58
1782,11460.21
1783,11340.56
1784,11288.64
1785,11286.68
1786,11275.34
1787,11241.82
1788,11218.84
1789,11219.93
1790,11217.08
1791,11186.16
1792,11139.44
1793,11096.99
1794,11061.96
1795,11028.32
1796,10993.32
1797,10957.84
1798,10924.5
1799,10899.23
1800,10886.61
1801,10883.26
1802,10882.61
1803,10868.89
1804,10822.37
1805,10758.74
1806,10732.38
1807,10766.64
1808,10815.04
1809,10831.97
1810,10813.79
1811,10769.32
1812,10718.93
1813,10688.11
1814,10678.15
1815,10666.03
1816,10642.44
1817,10625.83
1818,10629.71
1819,10637.87
1820,10630.19
1821,10608.7
1822,10585.06
1823,10563.36
1824,10541.32
1825,10516.96
1826,10488.97
1827,10461.76
1828,10455.66
1829,10484.55
1830,10510.67
1831,10484.77
1832,10430.02
1833,10413.58
1834,10440.04
1835,10442.79
1836,10391.91
1837,10338.98
1838,10328.05
1839,10338.62
1840,10338.67
1841,10320.78
1842,10288.58
1843,10252.3
1844,10226.97
1845,10222.75
1846,10243.09
1847,10277.87
1848,10287.12
1849,10241.5
1850,10172.56
1851,10123.4
1852,10105.63
1853,10115.21
1854,10129.91
1855,10114.24
1856,10071.35
1857,10055.15
1858,10084.1
1859,10091.23
1860,10028.87
1861,9967.108
1862,9985.69
1863,10037.53
1864,10030.26
1865,9969.512
1866,9927.286
1867,9925.97
1868,9930.851
1869,9917.956
1870,9888.461
1871,9852.595
1872,9839.832
1873,9872.257
1874,9915.209
1875,9921.691
1876,9897.257
1877,9873.821
1878,9861.524
1879,9852.399
1880,9847.593
1881,9860.749
1882,9889.17
1883,9895.03
1884,9854.14
1885,9801.526
1886,9775.799
1887,9768.957
1888,9760.699
1889,9760.562
1890,9791.159
1891,9831.19
1892,9825.189
1893,9768.609
1894,9720.011
1895,9715.735
1896,9744.027
1897,9783.143
1898,9797.83
1899,9765.715
1900,9731.956
1901,9748.697
1902,9786.707
1903,9786.457
1904,9737.202
1905,9659.941
1906,9592.164
1907,9584.74
1908,9630.219
1909,9642.988
1910,9587.58
1911,9536.44
1912,9544.551
1913,9581.585
1914,9609.061
1915,9618.211
1916,9609.712
1917,9594.382
1918,9584.74
1919,9571.358
1920,9534.716
1921,9490.237
1922,9479.408
1923,9500.602
1924,9504.711
1925,9470.131
1926,9420.582
1927,9381.538
1928,9374.152
1929,9406.206
1930,9447.681
1931,9467.043
1932,9455.537
1933,9414.318
1934,9368.106
1935,9346.084
1936,9342.583
1937,9335.846
1938,9319.908
1939,9299.878
1940,9288.593
1941,9304.749
1942,9341.003
1943,9359.836
1944,9353.522
1945,9362.386
1946,9392.407
1947,9372.363
1948,9272.416
1949,9197.169
1950,9226.558
1951,9275.816
1952,9254.729
1953,9216.634
1954,9236.473
1955,9265.069
1956,9222.039
1957,9157.905
1958,9174.689
1959,9236.65
1960,9230.141
1961,9156.561
1962,9104.437
1963,9099.856
1964,9107.175
1965,9105.821
1966,9096.168
1967,9084.748
1968,9085.12
1969,9095.165
1970,9083.938
1971,9041.064
1972,9007.545
1973,9010.161
1974,9019.531
1975,9007.039
1976,8976.941
1977,8942.712
1978,8927.752
1979,8949.112
1980,8980.951
1981,8988.622
1982,8962.044
1983,8904.169
1984,8847.285
1985,8831.13
1986,8851.174
1987,8881.596
1988,8907.374
1989,8920.412
1990,8919.326
1991,8907.046
1992,8884.064
1993,8849.582
1994,8814.634
1995,8799.986
1996,8810.279
1997,8833.782
1998,8857.9
1999,8869.924
2000,8859.777
2001,8821.086
2002,8764.472
2003,8723.39
2004,8713.561
2005,8721.119
2006,8733.449
2007,8744.223
2008,8750.496
2009,8754.431
2010,8755.889
2011,8749.137
2012,8735.329
2013,8731.787
2014,8742.279
2015,8734.314
2016,8687.387
2017,8623.53
2018,8573.395
2019,8572.983
2020,8630.495
2021,8674.062
2022,8656.154
2023,8641.542
2024,8676.597
2025,8688.384
2026,8620.756
2027,8543.735
2028,8526.159
2029,8550.329
2030,8579.124
2031,8569.917
2032,8506.31
2033,8465.827
2034,8512.344
2035,8592.418
2036,8635.087
2037,8597.265
2038,8474.982
2039,8379.154
2040,8399.515
2041,8466.487
2042,8504.609
2043,8534.823
2044,8574.329
2045,8560.623
2046,8456.888
2047,8362.226
2048,8358.338
2049,8387.403
2050,8387.374
2051,8364.484
2052,8333.566
2053,8297.884
2054,8267.799
2055,8277.982
2056,8333.677
2057,8355.313
2058,8300.112
2059,8244.34
2060,8240.239
2061,8248.546
2062,8240.502
2063,8234.006
2064,8246.349
2065,8282.528
2066,8322.807
2067,8307.925
2068,8233.231
2069,8185.492
2070,8203.748
2071,8247.243
2072,8281.303
2073,8287.556
2074,8261.544
2075,8213.928
2076,8159.369
2077,8115.728
2078,8099.407
2079,8122.876
2080,8159.184
2081,8154.148
2082,8116.976
2083,8098.768
2084,8107.641
2085,8124.918
2086,8135.826
2087,8128.68
2088,8098.16
2089,8047.164
2090,8011.776
2091,8029.027
2092,8073.417
2093,8113.134
2094,8176.64
2095,8274.619
2096,8297.995
2097,8189.507
2098,8118.343
2099,8191.244
2100,8270.801
2101,8276.618
2102,8306.234
2103,8400.444
2104,8479.829
2105,8532.429
2106,8642.913
2107,8790.63
2108,8846.42
2109,8835.565
2110,8906.576
2111,9051.138
2112,9161.718
2113,9228.517
2114,9286.179
2115,9303.348
2116,9246.688
2117,9220.673
2118,9313.876
2119,9371.331
2120,9270.907
2121,9171.385
2122,9185.718
2123,9203.021
2124,9136.797
2125,8997.635
2126,8832.98
2127,8723.299
2128,8679.833
2129,8642.162
2130,8559.874
2131,8403.5
2132,8251.924
2133,8216.94
2134,8207.869
2135,8093.928
2136,7970.102
2137,7945.015
2138,7934.105
2139,7860.451
2140,7769.896
2141,7706.161
2142,7675.236
2143,7652.502
2144,7583.248
2145,7499.736
2146,7502.448
2147,7512.615
2148,7369.996
2149,7232.554
2150,7326.421
2151,7441.168
2152,7341.138
2153,7203.58
2154,7182.978
2155,7165.188
2156,7097.326
2157,7086.522
2158,7142.424
2159,7153.582
2160,7095.333
2161,7013.031
2162,6925.934
2163,6845.372
2164,6821.657
2165,6879.998
2166,6904.298
2167,6822.241
2168,6739.333
2169,6719.891
2170,6725.414
2171,6728.934
2172,6723.457
2173,6690.028
2174,6612.341
2175,6557.476
2176,6591.477
2177,6611.553
2178,6541.165
2179,6502.701
2180,6546.51
2181,6544.318
2182,6459.013
2183,6373.516
2184,6367.871
2185,6488.42
2186,6582.666
2187,6485.647
2188,6354.75
2189,6337.128
2190,6336.973
2191,6286.725
2192,6221.735
2193,6195.067
2194,6255.586
2195,6319.885
2196,6262.002
2197,6159.92
2198,6121.475
2199,6117.948
2200,6135.36
2201,6234.802
2202,6362.61
2203,6343.201
2204,6207.998
2205,6111.894
2206,6072.499
2207,6052.27
2208,6013.81
2209,5957.172
2210,5953.368
2211,5998.021
2212,5996.803
2213,5927.083
2214,5818.222
2215,5704.068
2216,5619.942
2217,5600.67
2218,5637.944
2219,5650.128
2220,5622.575
2221,5610.978
2222,5624.454
2223,5640.195
2224,5617.595
2225,5527.764
2226,5386.528
2227,5261.591
2228,5268.527
2229,5317.143
2230,5205.384
2231,5058.831
2232,5056.4
2233,5098.327
2234,5078.444
2235,4984.947
2236,4892.538
2237,4923.961
2238,4999.409
2239,4977.049
2240,4875.764
2241,4757.1
2242,4684.593
2243,4653.163
2244,4595.609
2245,4535.377
2246,4528.294
2247,4549.789
2248,4550.578
2249,4479.243
2250,4386.602
2251,4410.635
2252,4491.439
2253,4492.185
2254,4411.945
2255,4308.492
2256,4279.744
2257,4306.45
2258,4265.323
2259,4160.223
2260,4057.297
2261,4014.497
2262,4021.754
2263,3966.005
2264,3869.694
2265,3847.177
2266,3827.575
2267,3732.844
2268,3673.479
2269,3699.732
2270,3741.271
2271,3758.008
2272,3735.248
2273,3662.669
2274,3561.378
2275,3508.837
2276,3486.219
2277,3399.995
2278,3325.725
2279,3344.515
2280,3328.418
2281,3232.414
2282,3164.771
2283,3116.384
2284,3035.28
2285,3026.291
2286,3107.839
2287,3076.188
2288,2905.367
2289,2735.07
2290,2702.952
2291,2808.964
2292,2749.625
2293,2525.436
2294,2445.796
2295,2454.309
2296,2404.358
2297,2383.026
2298,2407.931
2299,2377.742
2300,2350.725
