178.677	2347.33
181.278	2342.44
183.879	2376.44
186.48	2410.67
189.078	2437.56
191.677	2454.89
194.275	2520.22
196.871	2578.67
199.467	2647.33
202.061	2695.11
204.656	2771.78
207.248	2834.22
209.841	2882.22
212.431	2940.67
215.022	3011.11
217.613	3106.67
220.201	3170.44
222.789	3316.89
225.375	3463.33
227.962	3643.78
230.547	3887.78
233.13	4114.67
235.714	4353.78
238.296	4614.89
240.879	4733.56
243.459	4762.44
246.04	4650.67
248.618	4443.56
251.196	4141.11
253.774	3807.56
256.35	3452
258.927	3158
261.501	2868.22
264.074	2664.22
266.648	2484.44
269.22	2336.89
271.791	2218.22
274.362	2136.22
276.931	2056.67
279.5	1947.78
282.069	1869.33
284.635	1796.44
287.201	1712.89
289.766	1689.11
292.331	1638.44
294.894	1599.56
297.457	1576
300.018	1574.44
302.58	1548
305.14	1515.78
307.699	1500.22
310.257	1517.33
312.814	1502.44
315.372	1484
317.928	1478.22
320.482	1457.33
323.036	1469.78
325.589	1436
328.142	1430.89
330.693	1438
333.243	1416.22
335.795	1419.11
338.343	1428
340.891	1418
343.439	1401.56
345.985	1415.78
348.53	1422
351.075	1402
353.619	1435.78
356.162	1423.78
358.704	1425.11
361.245	1447.33
363.786	1451.56
366.325	1431.56
368.864	1412
371.402	1429.33
373.939	1414
376.475	1396.22
379.011	1414.44
381.545	1421.11
384.079	1406.67
386.612	1385.11
389.144	1360.22
391.674	1364
394.204	1352.67
396.734	1353.11
399.263	1347.33
401.791	1342.67
404.318	1352.67
406.844	1372.22
409.368	1375.56
411.893	1373.56
414.417	1384.44
416.94	1410.22
419.462	1396.22
421.982	1394.44
424.502	1390.89
427.022	1382.89
429.541	1388.89
432.057	1393.56
434.574	1391.11
437.091	1377.33
439.606	1362
442.12	1346.44
444.634	1344.22
447.147	1360.67
449.657	1351.56
452.169	1327.56
454.68	1319.78
457.188	1325.11
459.697	1313.11
462.205	1332.22
464.711	1330.44
467.217	1335.78
469.722	1336.89
472.227	1320
474.731	1318.67
477.232	1323.78
479.735	1316
482.235	1328.89
484.736	1350.22
487.234	1388.44
489.734	1399.56
492.23	1405.33
494.728	1426.67
497.223	1401.11
499.719	1413.78
502.213	1364.89
504.707	1348
507.199	1324.22
509.692	1322.22
512.182	1291.11
514.673	1313.56
517.162	1309.56
519.65	1305.33
522.139	1294.89
524.625	1311.56
527.112	1284.89
529.597	1279.33
532.081	1273.11
534.565	1273.33
537.047	1289.56
539.529	1288.67
542.011	1282.22
544.491	1276.22
546.97	1288.22
549.45	1280.89
551.927	1283.78
554.404	1312.44
556.88	1298
559.356	1315.78
561.831	1322
564.304	1319.33
566.777	1317.56
569.25	1319.78
571.721	1307.33
574.191	1302
576.661	1320.89
579.129	1307.11
581.599	1315.11
584.066	1304.67
586.532	1300.89
588.997	1310.44
591.462	1299.33
593.926	1272.44
596.389	1258.22
598.851	1291.56
601.314	1291.56
603.775	1268.44
606.235	1286.22
608.694	1286.44
611.152	1316.67
613.609	1310
616.066	1304.44
618.522	1294.22
620.977	1321.78
623.431	1312.67
625.885	1307.78
628.338	1302.89
630.79	1290.22
633.241	1296.22
635.691	1287.78
638.141	1286.89
640.589	1268.67
643.036	1291.78
645.483	1288.67
647.929	1271.56
650.375	1271.33
652.82	1269.11
655.264	1255.56
657.707	1243.33
660.149	1245.33
662.59	1242.44
665.031	1250
667.471	1221.78
669.91	1222.22
672.349	1254.44
674.786	1242
677.222	1234.89
679.658	1230.67
682.093	1250.44
684.528	1236.22
686.96	1242.22
689.393	1236.67
691.826	1228
694.256	1243.33
696.686	1234.89
699.116	1239.56
701.545	1247.11
703.972	1218
706.4	1228.89
708.826	1219.56
711.251	1247.33
713.676	1255.33
716.099	1255.11
718.523	1238
720.946	1256.22
723.366	1265.11
725.788	1237.33
728.207	1243.56
730.627	1230.44
733.044	1256.67
735.462	1241.78
737.88	1233.11
740.295	1245.56
742.711	1226.67
745.125	1249.11
747.539	1262.67
749.951	1228.67
752.363	1242.22
754.775	1238
757.185	1241.33
759.595	1246.44
762.003	1237.78
764.412	1235.11
766.819	1250
769.225	1226.89
771.632	1250.44
774.036	1265.33
776.441	1262
778.844	1271.33
781.246	1281.78
783.649	1270.67
786.05	1282.22
788.449	1244.89
790.85	1268
793.248	1253.33
795.646	1261.33
798.042	1257.56
800.44	1279.56
802.835	1276
805.23	1268.89
807.623	1258
810.018	1248.44
812.41	1265.11
814.801	1252
817.192	1267.33
819.582	1282.22
821.972	1248.67
824.361	1246.67
826.748	1237.11
829.135	1244.44
831.521	1245.33
833.907	1238.67
836.291	1223.11
838.675	1237.11
841.059	1236
843.442	1257.56
845.823	1269.11
848.204	1243.11
850.584	1275.78
852.963	1277.33
855.342	1255.56
857.72	1260.67
860.097	1297.11
862.473	1282.67
864.848	1275.33
867.223	1258.67
869.597	1236.67
871.97	1223.78
874.343	1221.56
876.714	1233.56
879.084	1230.22
881.454	1228.67
883.824	1238.22
886.192	1245.33
888.56	1250.22
890.927	1246.67
893.294	1239.33
895.66	1242.89
898.023	1230.44
900.387	1232.67
902.751	1246.67
905.114	1240.67
907.476	1218
909.835	1234.44
912.196	1231.11
914.555	1208.44
916.914	1212.67
919.271	1226.89
921.629	1212.22
923.985	1197.11
926.341	1197.56
928.695	1203.11
931.05	1209.11
933.404	1190.89
935.755	1211.56
938.107	1202.89
940.459	1212
942.808	1212.44
945.158	1201.78
947.508	1196
949.855	1232.22
952.202	1199.56
954.548	1214.67
956.894	1206.89
959.239	1228.44
961.583	1218.44
963.928	1199.33
966.27	1225.11
968.612	1218.22
970.953	1217.11
973.294	1205.11
975.633	1212
977.972	1214.22
980.31	1210.89
982.647	1230
984.984	1228.89
987.32	1230.67
989.656	1232.22
991.989	1224.44
994.324	1234.22
996.656	1214.89
998.988	1228.22
1001.32	1223.33
1003.65	1207.56
1005.98	1228
1008.31	1238
1010.64	1248.22
1012.97	1240.67
1015.29	1237.33
1017.62	1251.33
1019.94	1246.89
1022.27	1242.44
1024.59	1266.67
1026.92	1244.67
1029.24	1251.78
1031.56	1250.67
1033.88	1227.78
1036.2	1241.56
1038.52	1244.89
1040.84	1256.44
1043.16	1242.89
1045.48	1239.78
1047.79	1245.56
1050.11	1236
1052.42	1248.44
1054.74	1255.11
1057.05	1248
1059.36	1240
1061.67	1263.11
1063.99	1262.67
1066.3	1267.78
1068.61	1264.89
1070.92	1262.22
1073.22	1250.22
1075.53	1241.33
1077.84	1261.33
1080.15	1260.44
1082.45	1246
1084.76	1236
1087.06	1252.67
1089.36	1255.78
1091.66	1265.78
1093.97	1262
1096.27	1283.11
1098.57	1293.56
1100.87	1272.44
1103.17	1276.67
1105.46	1282.67
1107.76	1290.67
1110.06	1309.78
1112.35	1329.11
1114.65	1359.11
1116.94	1332.44
1119.24	1342.89
1121.53	1330.67
1123.82	1353.33
1126.11	1332.22
1128.4	1327.33
1130.7	1319.78
1132.98	1333.33
1135.27	1318.89
1137.56	1336.22
1139.85	1321.11
1142.13	1324.22
1144.42	1327.11
1146.71	1335.33
1148.99	1338.22
1151.27	1360.22
1153.56	1362
1155.84	1353.11
1158.12	1343.78
1160.4	1368.44
1162.68	1348
1164.96	1346.67
1167.24	1345.11
1169.51	1351.56
1171.79	1341.78
1174.07	1325.11
1176.34	1347.33
1178.62	1340.67
1180.89	1320.67
1183.17	1351.33
1185.44	1334
1187.71	1330
1189.98	1318.67
1192.25	1338.44
1194.52	1343.11
1196.79	1364
1199.06	1342.22
1201.33	1321.11
1203.59	1328.22
1205.86	1311.33
1208.12	1328.44
1210.39	1322.44
1212.65	1337.56
1214.92	1319.56
1217.18	1302.22
1219.44	1312
1221.7	1345.78
1223.96	1330.22
1226.22	1324.22
1228.48	1325.11
1230.74	1337.33
1233	1332.67
1235.25	1350.22
1237.51	1359.56
1239.77	1365.11
1242.02	1366.67
1244.27	1370
1246.53	1378.67
1248.78	1389.56
1251.03	1390.22
1253.28	1400.44
1255.53	1403.56
1257.78	1396.22
1260.03	1395.56
1262.28	1390.67
1264.53	1415.11
1266.78	1396
1269.02	1403.56
1271.27	1403.11
1273.51	1390.22
1275.76	1402.22
1278	1380.67
1280.24	1390
1282.48	1406.22
1284.72	1405.56
1286.97	1408.67
1289.21	1389.56
1291.44	1387.78
1293.68	1386.67
1295.92	1391.78
1298.16	1396.89
1300.39	1420.67
1302.63	1418.44
1304.86	1418.44
1307.1	1413.11
1309.33	1429.78
1311.56	1443.78
1313.8	1459.11
1316.03	1464.22
1318.26	1493.78
1320.49	1504.89
1322.72	1529.78
1324.95	1535.11
1327.17	1511.56
1329.4	1501.33
1331.63	1478.22
1333.85	1472.67
1336.08	1506.44
1338.3	1505.56
1340.53	1476.89
1342.75	1464.22
1344.97	1457.33
1347.19	1428.67
1349.41	1415.33
1351.63	1403.56
1353.85	1398.22
1356.07	1391.33
1358.29	1407.33
1360.51	1401.33
1362.72	1379.56
1364.94	1414.89
1367.16	1406.44
1369.37	1426.22
1371.58	1431.11
1373.8	1412.22
1376.01	1413.33
1378.22	1393.56
1380.43	1384.89
1382.64	1416
1384.85	1420.22
1387.06	1390.67
1389.27	1392.44
1391.48	1390
1393.68	1411.78
1395.89	1376.22
1398.1	1403.78
1400.3	1388.22
1402.51	1406.67
1404.71	1384.89
1406.91	1378.67
1409.11	1385.33
1411.32	1376.89
1413.52	1360
1415.72	1347.33
1417.92	1344.89
1420.11	1337.56
1422.31	1328
1424.51	1334.67
1426.71	1335.56
1428.9	1329.78
1431.1	1351.11
1433.29	1345.56
1435.49	1348.89
1437.68	1341.11
1439.87	1343.56
1442.06	1356.89
1444.25	1350.22
1446.45	1366
1448.64	1363.33
1450.82	1343.11
1453.01	1355.33
1455.2	1351.33
1457.39	1358.67
1459.57	1355.78
1461.76	1367.56
1463.94	1376.89
1466.13	1376
1468.31	1381.56
1470.5	1374.67
1472.68	1373.33
1474.86	1376.44
1477.04	1376.67
1479.22	1374.44
1481.4	1393.78
1483.58	1406
1485.76	1394.67
1487.94	1408
1490.11	1417.78
1492.29	1417.33
1494.46	1401.11
1496.64	1436.89
1498.81	1408
1500.99	1423.11
1503.16	1414.44
1505.33	1424.44
1507.5	1397.33
1509.67	1409.78
1511.84	1405.33
1514.01	1420
1516.18	1414
1518.35	1402.22
1520.52	1432
1522.68	1399.11
1524.85	1392.89
1527.02	1400.22
1529.18	1412.67
1531.35	1411.56
1533.51	1389.11
1535.67	1367.56
1537.83	1362
1539.99	1376.89
1542.16	1387.78
1544.31	1383.56
1546.47	1396.22
1548.63	1377.78
1550.79	1376.22
1552.95	1399.78
1555.11	1395.11
1557.26	1393.11
1559.42	1384
1561.57	1402.44
1563.73	1395.56
1565.88	1400.89
1568.03	1392.22
1570.18	1414.89
1572.34	1420.67
1574.49	1420
1576.64	1409.78
1578.79	1397.33
1580.93	1392
1583.08	1398.89
1585.23	1395.11
1587.38	1410
1589.52	1375.56
1591.67	1383.33
1593.81	1370.67
1595.96	1348.22
1598.1	1337.78
1600.24	1346.22
1602.38	1335.56
1604.53	1328.89
1606.67	1335.56
1608.81	1333.11
1610.95	1329.33
1613.09	1315.11
1615.22	1310.89
1617.36	1294.44
1619.5	1306.67
1621.63	1306.22
1623.77	1286.89
1625.9	1276.22
1628.04	1249.56
1630.17	1257.11
1632.3	1243.56
1634.44	1230.44
1636.57	1224
1638.7	1202.67
1640.83	1192
1642.96	1196.89
1645.09	1187.56
1647.22	1177.33
1649.34	1204
1651.47	1196
1653.6	1175.56
1655.72	1190.44
1657.85	1182.89
1659.97	1171.11
1662.1	1150
1664.22	1162.44
1666.34	1157.11
1668.46	1152
1670.58	1152.44
1672.7	1162
1674.82	1146.44
1676.94	1165.56
1679.06	1164.89
1681.18	1146.89
1683.3	1138.44
1685.41	1139.33
1687.53	1129.11
1689.64	1142.44
1691.76	1134.44
1693.87	1108.89
1695.99	1122
1698.1	1116.67
1700.21	1119.78
1702.32	1106.67
1704.43	1121.33
1706.54	1093.56
1708.65	1094
1710.76	1104.22
1712.87	1105.33
1714.98	1102
1717.08	1108.22
1719.19	1110
1721.29	1098.89
1723.4	1098.67
1725.5	1088.44
1727.61	1082.67
1729.71	1076.44
1731.81	1092.22
1733.91	1080.89
1736.02	1068.22
1738.12	1052
1740.22	1068.89
1742.31	1071.78
1744.41	1062
1746.51	1066.22
1748.61	1041.78
1750.7	1049.33
1752.8	1059.33
1754.9	1048
1756.99	1054.67
1759.08	1044.67
1761.18	1046.67
1763.27	1049.11
1765.36	1054.22
1767.45	1035.56
1769.54	1054
1771.63	1046
1773.72	1047.11
1775.81	1043.33
1777.9	1037.56
1779.99	1051.56
1782.08	1043.33
1784.16	1045.33
1786.25	1055.33
1788.33	1038.67
1790.42	1045.78
1792.5	1050.67
1794.58	1042.44
1796.67	1054.22
1798.75	1032.89
1800.83	1038.44
1802.91	1043.33
1804.99	1043.56
1807.07	1049.78
1809.15	1048.89
1811.23	1024.44
1813.3	1030.67
1815.38	1038.89
1817.46	1049.78
1819.53	1030.67
1821.61	1045.78
1823.68	1031.11
1825.75	1047.33
1827.83	1036
1829.9	1022.89
1831.97	1026.22
1834.04	1027.56
1836.11	1024.89
1838.18	1036
1840.25	1026
1842.32	1008.22
1844.39	1017.78
1846.46	1026.44
1848.52	1016.89
1850.59	1020
1852.65	1012.22
1854.72	1016.44
1856.78	1009.56
1858.85	1003.33
1860.91	1010.89
1862.97	997.778
1865.03	1011.11
1867.09	1017.33
1869.16	995.556
1871.22	991.778
1873.27	1001.11
1875.33	1006.22
1877.39	1014
1879.45	1012.89
1881.51	995.555
1883.56	998.889
1885.62	996
1887.67	1015.11
1889.73	1001.56
1891.78	985.111
1893.83	990.889
1895.89	1012.44
1897.94	1004
1899.99	1001.56
1902.04	994.667
1904.09	999.556
1906.14	1000.44
1908.19	993.555
1910.23	983.111
1912.28	996.222
1914.33	976.444
1916.37	1003.11
1918.42	986.667
1920.46	989.111
1922.51	982.444
1924.55	1005.56
1926.6	989.778
1928.64	996.889
1930.68	982.667
1932.72	988.667
1934.76	976.889
1936.8	977.555
1938.84	960
1940.88	977.333
1942.92	973.778
1944.96	969.555
1946.99	983.333
1949.03	988.445
1951.06	956.889
1953.1	972.222
1955.13	965.556
1957.17	958.222
1959.2	975.111
1961.23	973.556
1963.27	956
1965.3	948.445
1967.33	962.667
1969.36	958.889
1971.39	968.222
1973.42	950
1975.44	949.333
1977.47	943.555
1979.5	966.444
1981.53	938.667
1983.55	961.111
1985.58	941.333
1987.6	944.222
1989.63	947.778
1991.65	948.222
1993.67	929.556
1995.69	952.444
1997.72	940.889
1999.74	936.222
2001.76	944.889
2003.78	957.778
2005.8	944.445
2007.82	950
2009.83	937.333
2011.85	950.222
2013.87	932.667
2015.88	942.222
2017.9	955.778
2019.91	944
2021.93	942
2023.94	935.111
2025.96	941.778
2027.97	942
2029.98	952.889
2031.99	940.889
2034	958
2036.01	946.667
2038.02	954.222
2040.03	942.667
2042.04	935.778
2044.05	945.333
2046.05	954.667
2048.06	944.222
2050.07	942
2052.07	942.889
2054.08	927.556
2056.08	935.556
2058.08	931.555
2060.09	920.889
2062.09	945.111
2064.09	930.889
2066.09	931.778
2068.09	945.111
2070.09	926.222
2072.09	925.778
2074.09	927.778
2076.09	945.111
2078.09	920.667
2080.08	913.778
2082.08	927.778
2084.08	936.889
2086.07	922.667
2088.07	930.667
2090.06	922.444
2092.05	929.333
2094.05	915.333
2096.04	918
2098.03	923.111
2100.02	932.222
2102.01	918.444
2104	916
2105.99	918.222
2107.98	917.111
2109.97	904.889
2111.95	910.889
2113.94	907.333
2115.93	909.556
2117.91	900
2119.9	914.889
2121.88	901.778
2123.87	906.222
2125.85	902
2127.83	913.778
2129.81	901.778
2131.8	905.778
2133.78	905.556
2135.76	898.889
2137.74	899.333
2139.72	896.667
2141.69	911.556
2143.67	889.111
2145.65	897.778
2147.63	886.667
2149.6	880.667
2151.58	894.444
2153.55	898.222
2155.53	880
2157.5	891.778
2159.48	892.667
2161.45	889.111
2163.42	866.222
2165.39	905.111
2167.36	880.222
2169.33	892
2171.3	875.556
2173.27	880.667
2175.24	881.333
2177.21	868
2179.18	869.778
2181.14	864.444
2183.11	875.111
2185.07	882.222
2187.04	876.889
2189	875.111
2190.97	863.111
2192.93	871.333
2194.89	874.222
2196.86	872
2198.82	865.778
2200.78	853.333
2202.74	867.111
2204.7	863.333
2206.66	858
2208.62	858.889
2210.57	859.556
2212.53	847.556
2214.49	864.222
2216.45	851.333
2218.4	852.667
2220.36	866.222
2222.31	858.445
2224.27	862.667
2226.22	854.667
2228.17	849.556
2230.12	862.222
2232.08	846.889
2234.03	853.111
2235.98	855.556
2237.93	861.778
2239.88	858.222
2241.83	847.778
2243.78	857.333
2245.72	860.444
2247.67	839.778
2249.62	851.556
2251.56	848
2253.51	834.444
2255.45	847.778
2257.4	841.111
2259.34	845.556
2261.28	841.556
2263.23	820.444
2265.17	842
2267.11	835.111
2269.05	822.222
2270.99	847.333
2272.93	827.333
2274.87	838.222
2276.81	833.333
2278.75	829.333
2280.68	833.556
2282.62	830.889
2284.56	839.111
2286.49	826.444
2288.43	835.778
2290.36	833.778
2292.3	830.222
2294.23	822.444
2296.16	827.333
2298.09	817.111
2300.03	828.222
2301.96	818.222
2303.89	814
2305.82	817.333
2307.75	811.111
2309.68	820.667
2311.6	817.111
2313.53	814.222
2315.46	819.778
2317.39	822.444
2319.31	812.667
2321.24	824.222
2323.16	804.222
2325.09	808.667
2327.01	809.111
2328.93	810.445
2330.86	807.778
2332.78	811.778
2334.7	790
2336.62	823.333
2338.54	800
2340.46	800.222
2342.38	788.222
2344.3	799.333
2346.22	796.222
2348.14	804.889
2350.05	808.444
2351.97	805.778
2353.89	804.444
2355.8	798
2357.71	795.333
2359.63	789.111
2361.54	799.111
2363.46	794.222
2365.37	804.667
2367.28	795.111
2369.19	787.333
2371.1	795.556
2373.01	784.889
2374.92	782.445
2376.83	787.333
2378.74	785.111
2380.65	789.111
2382.56	775.778
2384.46	783.778
2386.37	786.889
2388.27	788.444
2390.18	767.111
2392.08	786.667
2393.99	769.778
2395.89	778
2397.8	783.111
2399.7	760.889
2401.6	771.333
2403.5	779.333
2405.4	768
2407.3	766
2409.2	760
2411.1	759.111
2413	758.444
2414.9	751.778
2416.8	768.889
2418.69	768.667
2420.59	768.222
2422.48	751.778
2424.38	768
2426.28	756.667
2428.17	760.444
2430.06	771.111
2431.96	767.333
2433.85	755.778
2435.74	762.667
2437.63	772
2439.52	761.778
2441.41	772.889
2443.3	755.778
2445.19	781.556
2447.08	752
