178.677	2490.89
181.278	2480.67
183.879	2499.78
186.48	2574.44
189.078	2636
191.677	2712.89
194.275	2785.56
196.871	2862
199.467	2971.56
202.061	3044.89
204.656	3145.33
207.248	3238
209.841	3316.44
212.431	3432.44
215.022	3549.78
217.613	3693.56
220.201	3845.56
222.789	4052.89
225.375	4293.33
227.962	4600.44
230.547	5012.22
233.13	5387.11
235.714	5812.89
238.296	6190.89
240.879	6467.11
243.459	6548.67
246.04	6359.56
248.618	6017.56
251.196	5509.56
253.774	4934.44
256.35	4370.44
258.927	3864
261.501	3432
264.074	3056.44
266.648	2760
269.22	2504.22
271.791	2297.11
274.362	2143.33
276.931	1996.89
279.5	1916.67
282.069	1816
284.635	1723.56
287.201	1677.56
289.766	1615.11
292.331	1577.33
294.894	1533.33
297.457	1497.11
300.018	1478.89
302.58	1455.78
305.14	1420.67
307.699	1447.78
310.257	1435.11
312.814	1432.44
315.372	1390.89
317.928	1387.11
320.482	1386.89
323.036	1362.44
325.589	1330.44
328.142	1303.56
330.693	1299.33
333.243	1294
335.795	1291.56
338.343	1272.44
340.891	1285.11
343.439	1278.22
345.985	1278.22
348.53	1281.78
351.075	1283.56
353.619	1274.44
356.162	1269.33
358.704	1258.22
361.245	1268.89
363.786	1260.67
366.325	1257.78
368.864	1257.78
371.402	1259.56
373.939	1259.78
376.475	1256.67
379.011	1280.22
381.545	1282.44
384.079	1268.89
386.612	1269.33
389.144	1255.33
391.674	1238.89
394.204	1237.56
396.734	1242.89
399.263	1242.44
401.791	1224.67
404.318	1245.56
406.844	1222.89
409.368	1220
411.893	1218.22
414.417	1228.22
416.94	1225.33
419.462	1215.56
421.982	1247.33
424.502	1241.11
427.022	1234.22
429.541	1224.89
432.057	1237.33
434.574	1237.11
437.091	1241.33
439.606	1239.33
442.12	1237.11
444.634	1228.22
447.147	1214.67
449.657	1224.67
452.169	1247.56
454.68	1238.67
457.188	1216.67
459.697	1230.67
462.205	1206
464.711	1203.78
467.217	1195.11
469.722	1212
472.227	1197.78
474.731	1192.67
477.232	1201.56
479.735	1199.11
482.235	1208.67
484.736	1185.11
487.234	1204.89
489.734	1184
492.23	1202.89
494.728	1183.56
497.223	1176
499.719	1178.22
502.213	1169.56
504.707	1160
507.199	1169.56
509.692	1170
512.182	1182
514.673	1160.22
517.162	1169.78
519.65	1156.44
522.139	1157.56
524.625	1169.11
527.112	1157.11
529.597	1170.89
532.081	1145.33
534.565	1155.11
537.047	1148.22
539.529	1156.89
542.011	1150.44
544.491	1144.89
546.97	1166.44
549.45	1166.89
551.927	1159.78
554.404	1157.56
556.88	1153.56
559.356	1157.78
561.831	1153.11
564.304	1175.11
566.777	1145.78
569.25	1166.89
571.721	1160.22
574.191	1174.22
576.661	1157.56
579.129	1164.22
581.599	1173.11
584.066	1163.78
586.532	1176.22
588.997	1156.67
591.462	1156.44
593.926	1165.78
596.389	1156.44
598.851	1155.11
601.314	1176.22
603.775	1170
606.235	1148.44
608.694	1168.44
611.152	1179.33
613.609	1158.89
616.066	1166.22
618.522	1174
620.977	1181.78
623.431	1181.56
625.885	1175.11
628.338	1195.33
630.79	1198.44
633.241	1187.11
635.691	1185.56
638.141	1184.22
640.589	1190
643.036	1192
645.483	1192.44
647.929	1197.56
650.375	1204.22
652.82	1193.56
655.264	1166.44
657.707	1186.44
660.149	1188.22
662.59	1185.56
665.031	1181.78
667.471	1188.22
669.91	1178.89
672.349	1156.22
674.786	1162.67
677.222	1185.56
679.658	1175.11
682.093	1176.44
684.528	1176.67
686.96	1183.11
689.393	1176.22
691.826	1165.56
694.256	1189.33
696.686	1211.78
699.116	1182.89
701.545	1174
703.972	1205.11
706.4	1193.33
708.826	1191.11
711.251	1194.67
713.676	1199.11
716.099	1200.44
718.523	1207.78
720.946	1194.67
723.366	1214.89
725.788	1209.11
728.207	1184.89
730.627	1179.11
733.044	1199.56
735.462	1199.56
737.88	1198.89
740.295	1196.22
742.711	1188.67
745.125	1195.56
747.539	1185.56
749.951	1189.33
752.363	1181.78
754.775	1200.67
757.185	1188.22
759.595	1186.67
762.003	1198.44
764.412	1178.44
766.819	1197.33
769.225	1193.56
771.632	1196.22
774.036	1202.22
776.441	1210.89
778.844	1207.11
781.246	1210.22
783.649	1209.33
786.05	1210.89
788.449	1217.33
790.85	1213.56
793.248	1226
795.646	1218.22
798.042	1220
800.44	1233.78
802.835	1229.78
805.23	1221.11
807.623	1229.33
810.018	1238
812.41	1235.78
814.801	1250.44
817.192	1248.67
819.582	1226.89
821.972	1238
824.361	1236.44
826.748	1223.78
829.135	1247.78
831.521	1227.56
833.907	1244.22
836.291	1238.89
838.675	1231.33
841.059	1232.67
843.442	1248.22
845.823	1225.78
848.204	1249.78
850.584	1239.11
852.963	1251.33
855.342	1232.89
857.72	1257.56
860.097	1276.89
862.473	1299.78
864.848	1270.89
867.223	1266.67
869.597	1243.11
871.97	1225.56
874.343	1218.89
876.714	1222.44
879.084	1221.56
881.454	1230.44
883.824	1214.44
886.192	1221.78
888.56	1229.56
890.927	1224.22
893.294	1228
895.66	1228.67
898.023	1221.33
900.387	1232.44
902.751	1231.78
905.114	1234
907.476	1217.33
909.835	1241.56
912.196	1224.89
914.555	1228.89
916.914	1217.56
919.271	1218.67
921.629	1233.33
923.985	1224
926.341	1221.78
928.695	1231.78
931.05	1210.89
933.404	1218.67
935.755	1234.67
938.107	1239.56
940.459	1226.89
942.808	1226
945.158	1218.44
947.508	1226.89
949.855	1235.33
952.202	1251.78
954.548	1241.11
956.894	1213.33
959.239	1237.33
961.583	1226.67
963.928	1234.89
966.27	1240
968.612	1234.22
970.953	1238.89
973.294	1252
975.633	1228.67
977.972	1247.11
980.31	1222
982.647	1244.22
984.984	1244
987.32	1235.33
989.656	1246.22
991.989	1252
994.324	1242.89
996.656	1256.22
998.988	1240
1001.32	1245.56
1003.65	1253.11
1005.98	1241.33
1008.31	1241.56
1010.64	1235.78
1012.97	1230.67
1015.29	1240.22
1017.62	1246.89
1019.94	1219.11
1022.27	1246.67
1024.59	1242.89
1026.92	1245.33
1029.24	1252.44
1031.56	1247.78
1033.88	1245.11
1036.2	1254.67
1038.52	1248.89
1040.84	1249.78
1043.16	1264.89
1045.48	1265.56
1047.79	1238.44
1050.11	1267.33
1052.42	1256.44
1054.74	1268.67
1057.05	1258.67
1059.36	1276.22
1061.67	1265.56
1063.99	1273.78
1066.3	1262.89
1068.61	1291.56
1070.92	1292
1073.22	1294.67
1075.53	1295.33
1077.84	1292
1080.15	1294.89
1082.45	1301.11
1084.76	1293.56
1087.06	1301.11
1089.36	1323.78
1091.66	1308.44
1093.97	1333.33
1096.27	1335.11
1098.57	1337.11
1100.87	1340
1103.17	1325.11
1105.46	1326.44
1107.76	1346.22
1110.06	1336
1112.35	1347.11
1114.65	1340.89
1116.94	1342.22
1119.24	1349.33
1121.53	1341.56
1123.82	1320.44
1126.11	1323.33
1128.4	1324.44
1130.7	1327.56
1132.98	1317.56
1135.27	1319.33
1137.56	1334.67
1139.85	1321.11
1142.13	1314
1144.42	1331.33
1146.71	1315.56
1148.99	1329.11
1151.27	1339.78
1153.56	1325.33
1155.84	1334.44
1158.12	1337.56
1160.4	1338
1162.68	1351.78
1164.96	1349.78
1167.24	1361.78
1169.51	1333.33
1171.79	1344.22
1174.07	1316.22
1176.34	1327.78
1178.62	1308.22
1180.89	1305.33
1183.17	1301.78
1185.44	1306.44
1187.71	1307.33
1189.98	1311.78
1192.25	1296.89
1194.52	1291.56
1196.79	1304.67
1199.06	1289.78
1201.33	1307.56
1203.59	1294.44
1205.86	1302.67
1208.12	1312.67
1210.39	1307.33
1212.65	1304.67
1214.92	1314
1217.18	1308.89
1219.44	1315.56
1221.7	1325.11
1223.96	1328.67
1226.22	1353.11
1228.48	1357.11
1230.74	1357.11
1233	1373.33
1235.25	1377.33
1237.51	1389.33
1239.77	1420.89
1242.02	1424.67
1244.27	1442
1246.53	1427.78
1248.78	1432.67
1251.03	1442.89
1253.28	1426.67
1255.53	1464.22
1257.78	1452.22
1260.03	1466.89
1262.28	1452.44
1264.53	1460.89
1266.78	1458.89
1269.02	1438
1271.27	1430.89
1273.51	1406
1275.76	1412.89
1278	1405.11
1280.24	1371.78
1282.48	1393.33
1284.72	1387.11
1286.97	1388.67
1289.21	1392
1291.44	1385.56
1293.68	1376
1295.92	1382.22
1298.16	1382.22
1300.39	1379.78
1302.63	1385.33
1304.86	1404.22
1307.1	1389.78
1309.33	1403.33
1311.56	1424.22
1313.8	1430.44
1316.03	1465.56
1318.26	1494
1320.49	1532
1322.72	1536.89
1324.95	1532
1327.17	1529.78
1329.4	1524
1331.63	1515.11
1333.85	1486
1336.08	1438.44
1338.3	1418.44
1340.53	1427.56
1342.75	1424.22
1344.97	1402.44
1347.19	1402.67
1349.41	1368.89
1351.63	1399.11
1353.85	1377.11
1356.07	1390
1358.29	1368.89
1360.51	1374.67
1362.72	1371.11
1364.94	1391.33
1367.16	1368.44
1369.37	1389.78
1371.58	1365.33
1373.8	1384.44
1376.01	1372.22
1378.22	1379.78
1380.43	1409.56
1382.64	1402.89
1384.85	1385.78
1387.06	1391.33
1389.27	1377.11
1391.48	1380.67
1393.68	1372
1395.89	1381.11
1398.1	1360.44
1400.3	1373.33
1402.51	1386
1404.71	1360.22
1406.91	1370.67
1409.11	1368.89
1411.32	1364
1413.52	1364.44
1415.72	1379.56
1417.92	1366.67
1420.11	1366.22
1422.31	1374.44
1424.51	1359.11
1426.71	1375.78
1428.9	1380.44
1431.1	1381.33
1433.29	1370
1435.49	1377.11
1437.68	1388.44
1439.87	1376.44
1442.06	1377.78
1444.25	1376.44
1446.45	1370.22
1448.64	1373.11
1450.82	1367.11
1453.01	1379.78
1455.2	1387.56
1457.39	1378.22
1459.57	1387.56
1461.76	1362.89
1463.94	1391.11
1466.13	1364.44
1468.31	1365.56
1470.5	1378.44
1472.68	1364.44
1474.86	1371.78
1477.04	1370.22
1479.22	1376.89
1481.4	1380.89
1483.58	1359.33
1485.76	1394.44
1487.94	1380.67
1490.11	1362.67
1492.29	1366.67
1494.46	1342.22
1496.64	1379.56
1498.81	1370.67
1500.99	1369.78
1503.16	1358
1505.33	1362.67
1507.5	1368
1509.67	1354.67
1511.84	1369.33
1514.01	1358
1516.18	1376.67
1518.35	1357.56
1520.52	1361.56
1522.68	1366.44
1524.85	1377.33
1527.02	1344.22
1529.18	1368
1531.35	1367.78
1533.51	1345.78
1535.67	1348
1537.83	1362.89
1539.99	1364
1542.16	1379.56
1544.31	1360.67
1546.47	1355.33
1548.63	1376.22
1550.79	1363.78
1552.95	1372.44
1555.11	1356.44
1557.26	1358.89
1559.42	1386.22
1561.57	1355.78
1563.73	1357.11
1565.88	1368.22
1568.03	1381.11
1570.18	1371.11
1572.34	1378.67
1574.49	1389.78
1576.64	1406.22
1578.79	1383.11
1580.93	1403.56
1583.08	1373.33
1585.23	1372
1587.38	1390.67
1589.52	1390.89
1591.67	1380
1593.81	1399.33
1595.96	1394.22
1598.1	1373.11
1600.24	1393.11
1602.38	1376.67
1604.53	1389.11
1606.67	1371.33
1608.81	1366.44
1610.95	1373.11
1613.09	1370
1615.22	1355.56
1617.36	1351.56
1619.5	1355.56
1621.63	1353.11
1623.77	1338
1625.9	1333.56
1628.04	1332.44
1630.17	1317.56
1632.3	1324.89
1634.44	1310.67
1636.57	1329.11
1638.7	1330.22
1640.83	1300.89
1642.96	1276.67
1645.09	1300.89
1647.22	1292
1649.34	1266
1651.47	1288.22
1653.6	1256.89
1655.72	1282.44
1657.85	1289.11
1659.97	1262.44
1662.1	1273.78
1664.22	1271.56
1666.34	1264.44
1668.46	1273.78
1670.58	1274.22
1672.7	1262.44
1674.82	1252
1676.94	1263.33
1679.06	1268.22
1681.18	1256
1683.3	1269.33
1685.41	1274.67
1687.53	1265.56
1689.64	1263.56
1691.76	1267.33
1693.87	1258.44
1695.99	1237.56
1698.1	1252.22
1700.21	1250
1702.32	1253.56
1704.43	1249.11
1706.54	1243.11
1708.65	1252.89
1710.76	1249.11
1712.87	1259.33
1714.98	1257.78
1717.08	1250.22
1719.19	1252
1721.29	1246.89
1723.4	1236.44
1725.5	1242.67
1727.61	1260
1729.71	1238.89
1731.81	1247.33
1733.91	1243.78
1736.02	1225.11
1738.12	1221.56
1740.22	1233.33
1742.31	1237.11
1744.41	1235.11
1746.51	1232.44
1748.61	1221.33
1750.7	1238.44
1752.8	1217.33
1754.9	1230
1756.99	1208.89
1759.08	1201.56
1761.18	1220.44
1763.27	1218.67
1765.36	1204.89
1767.45	1212.89
1769.54	1218.44
1771.63	1201.11
1773.72	1227.11
1775.81	1232.67
1777.9	1218.22
1779.99	1229.56
1782.08	1224.22
1784.16	1203.56
1786.25	1230
1788.33	1209.11
1790.42	1230.44
1792.5	1222.22
1794.58	1237.11
1796.67	1208
1798.75	1218.67
1800.83	1203.56
1802.91	1217.11
1804.99	1226.67
1807.07	1221.11
1809.15	1203.33
1811.23	1213.78
1813.3	1219.78
1815.38	1210.89
1817.46	1196.89
1819.53	1202.44
1821.61	1204
1823.68	1203.78
1825.75	1214.67
1827.83	1207.56
1829.9	1218.67
1831.97	1211.56
1834.04	1188.22
1836.11	1205.56
1838.18	1193.11
1840.25	1189.33
1842.32	1218
1844.39	1210
1846.46	1174.67
1848.52	1191.56
1850.59	1169.56
1852.65	1180.22
1854.72	1187.56
1856.78	1184.44
1858.85	1185.78
1860.91	1196.89
1862.97	1207.33
1865.03	1196.89
1867.09	1181.56
1869.16	1203.33
1871.22	1194.67
1873.27	1180.44
1875.33	1173.33
1877.39	1177.11
1879.45	1185.11
1881.51	1196
1883.56	1189.56
1885.62	1196.22
1887.67	1187.11
1889.73	1183.56
1891.78	1185.33
1893.83	1181.78
1895.89	1188
1897.94	1187.56
1899.99	1176.44
1902.04	1189.56
1904.09	1178.67
1906.14	1186
1908.19	1178.22
1910.23	1200.22
1912.28	1190.22
1914.33	1171.11
1916.37	1168.22
1918.42	1186.89
1920.46	1189.78
1922.51	1177.11
1924.55	1177.11
1926.6	1175.78
1928.64	1182
1930.68	1176.89
1932.72	1173.11
1934.76	1175.11
1936.8	1174.22
1938.84	1178.22
1940.88	1179.78
1942.92	1173.11
1944.96	1163.11
1946.99	1178.89
1949.03	1193.56
1951.06	1169.56
1953.1	1154.67
1955.13	1166
1957.17	1168
1959.2	1158.44
1961.23	1162.89
1963.27	1151.11
1965.3	1167.11
1967.33	1161.78
1969.36	1160.67
1971.39	1147.56
1973.42	1161.56
1975.44	1154.44
1977.47	1151.11
1979.5	1156
1981.53	1149.56
1983.55	1138.22
1985.58	1142.22
1987.6	1146.44
1989.63	1138.22
1991.65	1145.78
1993.67	1150.22
1995.69	1143.56
1997.72	1139.11
1999.74	1148.22
2001.76	1137.33
2003.78	1144
2005.8	1154.89
2007.82	1154.44
2009.83	1153.56
2011.85	1151.11
2013.87	1146.22
2015.88	1138.22
2017.9	1148.67
2019.91	1142
2021.93	1147.56
2023.94	1152.89
2025.96	1172
2027.97	1166.44
2029.98	1158.89
2031.99	1146.67
2034	1143.78
2036.01	1150.67
2038.02	1154.67
2040.03	1151.33
2042.04	1158.89
2044.05	1143.11
2046.05	1147.11
2048.06	1138.22
2050.07	1152.67
2052.07	1158.44
2054.08	1148.22
2056.08	1141.11
2058.08	1142.89
2060.09	1134.44
2062.09	1125.33
2064.09	1131.11
2066.09	1131.11
2068.09	1141.11
2070.09	1148.67
2072.09	1134.67
2074.09	1127.33
2076.09	1132.67
2078.09	1137.78
2080.08	1125.11
2082.08	1126.67
2084.08	1115.33
2086.07	1125.33
2088.07	1126.89
2090.06	1126.44
2092.05	1120.44
2094.05	1120.22
2096.04	1127.33
2098.03	1124.89
2100.02	1117.33
2102.01	1118.44
2104	1134.44
2105.99	1130.44
2107.98	1121.11
2109.97	1118.44
2111.95	1136.89
2113.94	1119.56
2115.93	1130
2117.91	1120
2119.9	1130.44
2121.88	1135.78
2123.87	1124
2125.85	1119.56
2127.83	1128.89
2129.81	1126.44
2131.8	1123.33
2133.78	1126
2135.76	1103.11
2137.74	1120
2139.72	1124.67
2141.69	1131.78
2143.67	1124
2145.65	1121.78
2147.63	1122
2149.6	1101.33
2151.58	1103.33
2153.55	1098.67
2155.53	1107.11
2157.5	1104.67
2159.48	1112.89
2161.45	1113.78
2163.42	1094.22
2165.39	1107.33
2167.36	1105.78
2169.33	1087.33
2171.3	1082.67
2173.27	1092
2175.24	1097.11
2177.21	1080.44
2179.18	1083.78
2181.14	1090
2183.11	1085.78
2185.07	1078.89
2187.04	1078.67
2189	1082.44
2190.97	1079.11
2192.93	1072.22
2194.89	1092
2196.86	1085.56
2198.82	1074.44
2200.78	1095.78
2202.74	1076
2204.7	1074.44
2206.66	1078.67
2208.62	1069.78
2210.57	1074.44
2212.53	1067.11
2214.49	1071.56
2216.45	1053.78
2218.4	1082.22
2220.36	1073.56
2222.31	1064.89
2224.27	1060.89
2226.22	1073.11
2228.17	1064.89
2230.12	1054.22
2232.08	1046.67
2234.03	1067.11
2235.98	1056.22
2237.93	1066.22
2239.88	1057.78
2241.83	1051.11
2243.78	1060.22
2245.72	1063.78
2247.67	1063.11
2249.62	1043.56
2251.56	1051.33
2253.51	1036.89
2255.45	1049.78
2257.4	1048.44
2259.34	1038
2261.28	1050.22
2263.23	1036.67
2265.17	1038.22
2267.11	1031.78
2269.05	1022.67
2270.99	1036
2272.93	1023.33
2274.87	1030.89
2276.81	1038
2278.75	1041.11
2280.68	1019.33
2282.62	1015.78
2284.56	1025.56
2286.49	1019.33
2288.43	1033.56
2290.36	1020.67
2292.3	1012
2294.23	1021.33
2296.16	1016.44
2298.09	1012.67
2300.03	1013.78
2301.96	1018
2303.89	1005.33
2305.82	1024.67
2307.75	1013.78
2309.68	1014.44
2311.6	1014.44
2313.53	991.778
2315.46	1010.67
2317.39	1019.56
2319.31	1003.33
2321.24	996
2323.16	1003.11
2325.09	1014.22
2327.01	1003.11
2328.93	997.556
2330.86	1012
2332.78	987.111
2334.7	993.111
2336.62	988.222
2338.54	1008.22
2340.46	996.222
2342.38	995.778
2344.3	985.778
2346.22	988.444
2348.14	988.889
2350.05	988.667
2351.97	1000.67
2353.89	994.667
2355.8	982.889
2357.71	981.333
2359.63	979.778
2361.54	974.222
2363.46	993.333
2365.37	981.333
2367.28	977.333
2369.19	980.222
2371.1	973.111
2373.01	964
2374.92	956.444
2376.83	975.111
2378.74	962.667
2380.65	948.667
2382.56	956.222
2384.46	956.667
2386.37	956.222
2388.27	956
2390.18	953.333
2392.08	961.778
2393.99	954.445
2395.89	945.778
2397.8	957.778
2399.7	944.889
2401.6	966.444
2403.5	938.889
2405.4	950.889
2407.3	940.222
2409.2	949.556
2411.1	937.778
2413	946.889
2414.9	935.111
2416.8	929.111
2418.69	939.333
2420.59	927.556
2422.48	936.667
2424.38	945.778
2426.28	937.778
2428.17	930.889
2430.06	937.778
2431.96	948.444
2433.85	946.667
2435.74	939.111
2437.63	943.555
2439.52	936.444
2441.41	943.778
2443.3	928.889
2445.19	940.667
2447.08	937.333
