178.677	2154.44
181.278	2155.56
183.879	2180.44
186.48	2227.56
189.078	2296
191.677	2359.11
194.275	2406
196.871	2500.67
199.467	2584.89
202.061	2662.44
204.656	2719.33
207.248	2805.78
209.841	2887.11
212.431	2962.44
215.022	3054.67
217.613	3144.89
220.201	3278.89
222.789	3475.78
225.375	3680.44
227.962	3927.78
230.547	4202
233.13	4552.44
235.714	4896.67
238.296	5228.44
240.879	5479.78
243.459	5592.44
246.04	5437.11
248.618	5180.22
251.196	4786
253.774	4314.22
256.35	3817.33
258.927	3393.78
261.501	2996.44
264.074	2673.11
266.648	2419.56
269.22	2220.22
271.791	2039.78
274.362	1910
276.931	1755.33
279.5	1669.33
282.069	1594
284.635	1516.44
287.201	1446.89
289.766	1407.78
292.331	1376.89
294.894	1316.89
297.457	1286.44
300.018	1277.11
302.58	1255.56
305.14	1222.22
307.699	1193.33
310.257	1185.56
312.814	1164.44
315.372	1151.78
317.928	1132.22
320.482	1141.78
323.036	1129.33
325.589	1104
328.142	1122
330.693	1103.56
333.243	1114.89
335.795	1100.89
338.343	1092.67
340.891	1075.33
343.439	1086.44
345.985	1096.22
348.53	1082
351.075	1072.67
353.619	1072.22
356.162	1068.89
358.704	1072.22
361.245	1087.11
363.786	1078
366.325	1075.11
368.864	1068
371.402	1072.44
373.939	1073.78
376.475	1071.78
379.011	1082.89
381.545	1093.33
384.079	1095.33
386.612	1074.89
389.144	1047.56
391.674	1031.11
394.204	1052.67
396.734	1036.22
399.263	1044.89
401.791	1028.44
404.318	1031.11
406.844	1041.33
409.368	1036.89
411.893	1036
414.417	1044.22
416.94	1041.56
419.462	1037.11
421.982	1042.22
424.502	1046
427.022	1043.11
429.541	1038.89
432.057	1040.44
434.574	1045.56
437.091	1053.78
439.606	1046
442.12	1022.22
444.634	1024.67
447.147	1021.11
449.657	1019.56
452.169	1016
454.68	1021.11
457.188	1044
459.697	1027.78
462.205	1026.44
464.711	1015.33
467.217	1021.33
469.722	1004
472.227	1017.78
474.731	1004.44
477.232	995.556
479.735	1008.89
482.235	1000.22
484.736	1008.67
487.234	1015.56
489.734	997.556
492.23	997.555
494.728	994.889
497.223	979.778
499.719	983.556
502.213	983.333
504.707	981.778
507.199	981.111
509.692	968.889
512.182	992.444
514.673	982
517.162	983.333
519.65	978
522.139	975.555
524.625	971.556
527.112	953.556
529.597	958.222
532.081	968.444
534.565	961.333
537.047	964.667
539.529	969.333
542.011	968.222
544.491	982.445
546.97	968.889
549.45	980.889
551.927	980.222
554.404	973.778
556.88	963.333
559.356	983.333
561.831	970.667
564.304	967.556
566.777	976.444
569.25	970.667
571.721	969.111
574.191	972.222
576.661	981.111
579.129	966.667
581.599	978.667
584.066	975.556
586.532	955.333
588.997	972.222
591.462	980
593.926	953.556
596.389	973.111
598.851	961.111
601.314	978.444
603.775	977.333
606.235	976.889
608.694	976
611.152	970.667
613.609	983.556
616.066	990
618.522	996.222
620.977	976.222
623.431	983.333
625.885	989.111
628.338	996
630.79	985.778
633.241	982.889
635.691	998.889
638.141	1003.56
640.589	993.778
643.036	1004.44
645.483	1003.78
647.929	994.222
650.375	1012
652.82	992.889
655.264	982.889
657.707	973.333
660.149	983.333
662.59	989.778
665.031	985.111
667.471	976
669.91	987.333
672.349	974.444
674.786	983.556
677.222	985.333
679.658	978.222
682.093	988.889
684.528	992.222
686.96	989.111
689.393	988
691.826	975.333
694.256	987.778
696.686	993.556
699.116	1000.44
701.545	994.667
703.972	991.555
706.4	1004
708.826	999.111
711.251	985.333
713.676	1006.22
716.099	993.111
718.523	1001.78
720.946	997.111
723.366	992.667
725.788	1003.11
728.207	995.111
730.627	981.111
733.044	996.667
735.462	992
737.88	997.111
740.295	993.778
742.711	993.111
745.125	1012.67
747.539	996.222
749.951	979.111
752.363	994.667
754.775	999.111
757.185	984.667
759.595	984.445
762.003	998.889
764.412	1008.22
766.819	985.556
769.225	1007.11
771.632	977.333
774.036	998.889
776.441	1005.33
778.844	996.222
781.246	1008.89
783.649	984.444
786.05	1023.33
788.449	1002.44
790.85	1005.78
793.248	1016.67
795.646	1012.22
798.042	1023.78
800.44	1004
802.835	1035.33
805.23	1018
807.623	1030
810.018	1030
812.41	1050.44
814.801	1039.11
817.192	1027.11
819.582	1041.56
821.972	1032
824.361	1023.11
826.748	1009.78
829.135	1008.67
831.521	1016
833.907	1035.56
836.291	1018.22
838.675	1022.44
841.059	1030
843.442	1016
845.823	1012.22
848.204	1019.11
850.584	1052.22
852.963	1042
855.342	1054
857.72	1060.22
860.097	1058.22
862.473	1067.78
864.848	1073.33
867.223	1049.11
869.597	1030.22
871.97	1035.11
874.343	1002.44
876.714	1007.56
879.084	1012.89
881.454	1013.11
883.824	1013.78
886.192	1020
888.56	1016
890.927	1028.89
893.294	1012.67
895.66	1016.22
898.023	1022.67
900.387	1021.33
902.751	1013.78
905.114	994
907.476	1020.22
909.835	1007.33
912.196	1010.22
914.555	1006.89
916.914	1012.22
919.271	1021.78
921.629	1007.33
923.985	1012.67
926.341	1019.11
928.695	1008
931.05	1002.22
933.404	1010.44
935.755	990.222
938.107	1008.89
940.459	1009.56
942.808	993.556
945.158	995.333
947.508	1016.44
949.855	1005.33
952.202	1004.22
954.548	1008.67
956.894	996.222
959.239	1008
961.583	1002.89
963.928	1009.33
966.27	1008.67
968.612	1005.33
970.953	1026
973.294	1023.78
975.633	1026.22
977.972	1010.89
980.31	1013.11
982.647	1008
984.984	1023.33
987.32	1023.33
989.656	1022.67
991.989	1013.78
994.324	1014.89
996.656	1020.44
998.988	1025.56
1001.32	1019.11
1003.65	1022
1005.98	1010.89
1008.31	1015.33
1010.64	1033.33
1012.97	1010.44
1015.29	1025.78
1017.62	1019.33
1019.94	1024.22
1022.27	1033.56
1024.59	1025.56
1026.92	1016.22
1029.24	1027.78
1031.56	1029.56
1033.88	1025.11
1036.2	1020.89
1038.52	1024.89
1040.84	1030.67
1043.16	1032
1045.48	1032.89
1047.79	1040.22
1050.11	1039.33
1052.42	1050.67
1054.74	1041.33
1057.05	1048
1059.36	1042.44
1061.67	1050.22
1063.99	1059.11
1066.3	1050.44
1068.61	1050
1070.92	1066.22
1073.22	1046
1075.53	1040.89
1077.84	1068.44
1080.15	1062.67
1082.45	1049.33
1084.76	1063.33
1087.06	1070
1089.36	1067.11
1091.66	1090.67
1093.97	1098.89
1096.27	1122.89
1098.57	1094.89
1100.87	1111.11
1103.17	1096.67
1105.46	1106.89
1107.76	1101.11
1110.06	1126.67
1112.35	1123.11
1114.65	1099.33
1116.94	1107.56
1119.24	1109.56
1121.53	1101.33
1123.82	1098
1126.11	1102.22
1128.4	1098.67
1130.7	1102.67
1132.98	1074.89
1135.27	1087.33
1137.56	1078.89
1139.85	1078
1142.13	1099.33
1144.42	1075.33
1146.71	1117.78
1148.99	1080.22
1151.27	1093.78
1153.56	1109.11
1155.84	1098.44
1158.12	1112.67
1160.4	1116.44
1162.68	1107.56
1164.96	1115.33
1167.24	1127.56
1169.51	1110
1171.79	1102.67
1174.07	1096.67
1176.34	1093.56
1178.62	1082.44
1180.89	1079.78
1183.17	1055.78
1185.44	1065.78
1187.71	1065.33
1189.98	1066
1192.25	1073.33
1194.52	1060
1196.79	1070.89
1199.06	1066
1201.33	1070.22
1203.59	1060.67
1205.86	1074.22
1208.12	1070.89
1210.39	1087.78
1212.65	1058.67
1214.92	1081.78
1217.18	1078.67
1219.44	1087.33
1221.7	1089.33
1223.96	1080.44
1226.22	1095.78
1228.48	1113.56
1230.74	1122
1233	1114.67
1235.25	1130.22
1237.51	1148.67
1239.77	1169.56
1242.02	1177.11
1244.27	1185.33
1246.53	1194.22
1248.78	1195.78
1251.03	1195.33
1253.28	1192.44
1255.53	1206.89
1257.78	1208
1260.03	1200.89
1262.28	1207.33
1264.53	1198
1266.78	1204.22
1269.02	1193.33
1271.27	1182.67
1273.51	1159.56
1275.76	1158.89
1278	1162.22
1280.24	1147.11
1282.48	1123.78
1284.72	1126.67
1286.97	1122.67
1289.21	1122
1291.44	1115.78
1293.68	1135.33
1295.92	1135.56
1298.16	1129.78
1300.39	1111.56
1302.63	1137.56
1304.86	1140
1307.1	1127.78
1309.33	1142.22
1311.56	1180.22
1313.8	1191.78
1316.03	1205.56
1318.26	1230.67
1320.49	1259.56
1322.72	1256.67
1324.95	1286
1327.17	1274.22
1329.4	1254.22
1331.63	1253.11
1333.85	1215.56
1336.08	1179.78
1338.3	1166.22
1340.53	1164
1342.75	1139.56
1344.97	1142.89
1347.19	1143.78
1349.41	1132.22
1351.63	1127.56
1353.85	1132.89
1356.07	1119.78
1358.29	1137.11
1360.51	1134.22
1362.72	1124.22
1364.94	1140.67
1367.16	1115.11
1369.37	1127.78
1371.58	1136
1373.8	1132.89
1376.01	1153.33
1378.22	1152.22
1380.43	1144.44
1382.64	1136
1384.85	1141.33
1387.06	1130.67
1389.27	1131.56
1391.48	1130.67
1393.68	1119.78
1395.89	1129.11
1398.1	1090.22
1400.3	1101.78
1402.51	1121.11
1404.71	1097.78
1406.91	1120.67
1409.11	1106.22
1411.32	1108.44
1413.52	1126.89
1415.72	1105.11
1417.92	1100
1420.11	1091.56
1422.31	1099.33
1424.51	1099.78
1426.71	1093.56
1428.9	1092.44
1431.1	1100
1433.29	1093.56
1435.49	1097.33
1437.68	1094.44
1439.87	1097.33
1442.06	1089.56
1444.25	1105.33
1446.45	1107.78
1448.64	1112.67
1450.82	1105.56
1453.01	1105.11
1455.2	1095.78
1457.39	1113.56
1459.57	1107.78
1461.76	1101.56
1463.94	1099.56
1466.13	1100
1468.31	1084.89
1470.5	1108.89
1472.68	1087.78
1474.86	1087.78
1477.04	1083.33
1479.22	1096.44
1481.4	1100.44
1483.58	1100.67
1485.76	1096.67
1487.94	1096.89
1490.11	1078.44
1492.29	1086.89
1494.46	1075.33
1496.64	1080
1498.81	1075.56
1500.99	1083.11
1503.16	1064.67
1505.33	1056.89
1507.5	1087.33
1509.67	1077.78
1511.84	1065.78
1514.01	1082
1516.18	1077.33
1518.35	1078
1520.52	1072
1522.68	1076
1524.85	1080.44
1527.02	1077.33
1529.18	1079.56
1531.35	1066.44
1533.51	1070
1535.67	1090
1537.83	1065.78
1539.99	1071.11
1542.16	1078.67
1544.31	1080
1546.47	1081.56
1548.63	1065.56
1550.79	1081.33
1552.95	1084
1555.11	1094.22
1557.26	1085.33
1559.42	1100.67
1561.57	1085.33
1563.73	1084
1565.88	1101.33
1568.03	1096
1570.18	1112.22
1572.34	1112.22
1574.49	1114.89
1576.64	1116.67
1578.79	1121.78
1580.93	1112.89
1583.08	1098.22
1585.23	1118.22
1587.38	1104.44
1589.52	1110.67
1591.67	1103.11
1593.81	1103.56
1595.96	1104
1598.1	1113.11
1600.24	1113.56
1602.38	1097.56
1604.53	1109.56
1606.67	1091.33
1608.81	1110
1610.95	1104
1613.09	1100.67
1615.22	1091.78
1617.36	1067.56
1619.5	1066
1621.63	1063.11
1623.77	1058.44
1625.9	1051.56
1628.04	1036.89
1630.17	1042.44
1632.3	1040.89
1634.44	1040.67
1636.57	1033.78
1638.7	1035.33
1640.83	1034.22
1642.96	1021.11
1645.09	1012
1647.22	1020.89
1649.34	1024.22
1651.47	1011.33
1653.6	999.556
1655.72	996.889
1657.85	1014.67
1659.97	1012
1662.1	1004
1664.22	1010
1666.34	998.444
1668.46	988.222
1670.58	1005.78
1672.7	992
1674.82	986.445
1676.94	984.667
1679.06	986.222
1681.18	992.667
1683.3	982
1685.41	1001.11
1687.53	999.111
1689.64	986.222
1691.76	1008
1693.87	993.111
1695.99	990.444
1698.1	987.778
1700.21	992.222
1702.32	986.222
1704.43	999.556
1706.54	978.667
1708.65	984.445
1710.76	994
1712.87	983.778
1714.98	998.444
1717.08	974.222
1719.19	983.333
1721.29	982.889
1723.4	986.222
1725.5	977.778
1727.61	981.556
1729.71	989.333
1731.81	977.556
1733.91	960.889
1736.02	978.444
1738.12	960.667
1740.22	980.889
1742.31	961.556
1744.41	960.222
1746.51	972
1748.61	960.667
1750.7	969.778
1752.8	966.667
1754.9	961.333
1756.99	963.111
1759.08	962.889
1761.18	959.556
1763.27	950.667
1765.36	959.111
1767.45	965.111
1769.54	956.889
1771.63	954.444
1773.72	950
1775.81	955.778
1777.9	952.444
1779.99	961.111
1782.08	953.111
1784.16	969.333
1786.25	966.222
1788.33	963.778
1790.42	947.556
1792.5	951.111
1794.58	962.444
1796.67	958
1798.75	963.778
1800.83	969.778
1802.91	949.778
1804.99	945.111
1807.07	955.556
1809.15	962.889
1811.23	968.667
1813.3	949.556
1815.38	951.111
1817.46	948.667
1819.53	960.889
1821.61	944.222
1823.68	947.111
1825.75	942.667
1827.83	954.444
1829.9	938
1831.97	950.889
1834.04	936.889
1836.11	920.889
1838.18	936.222
1840.25	941.778
1842.32	932
1844.39	943.333
1846.46	939.778
1848.52	937.555
1850.59	946
1852.65	933.111
1854.72	940.222
1856.78	939.111
1858.85	943.778
1860.91	940
1862.97	938
1865.03	915.778
1867.09	916.889
1869.16	929.111
1871.22	924.222
1873.27	919.778
1875.33	923.333
1877.39	929.333
1879.45	920.222
1881.51	928.444
1883.56	931.333
1885.62	922.889
1887.67	921.556
1889.73	925.778
1891.78	919.333
1893.83	934.667
1895.89	923.333
1897.94	904.444
1899.99	931.556
1902.04	912.667
1904.09	918.667
1906.14	915.556
1908.19	933.778
1910.23	922.889
1912.28	927.333
1914.33	936.889
1916.37	925.111
1918.42	929.333
1920.46	923.555
1922.51	912.222
1924.55	925.556
1926.6	928
1928.64	924.667
1930.68	918.444
1932.72	920
1934.76	918.444
1936.8	909.333
1938.84	918
1940.88	902.444
1942.92	915.778
1944.96	905.111
1946.99	910.889
1949.03	904.222
1951.06	915.333
1953.1	907.778
1955.13	896.889
1957.17	912.667
1959.2	906.889
1961.23	891.111
1963.27	894.444
1965.3	898.889
1967.33	894.444
1969.36	894.222
1971.39	896.667
1973.42	890.889
1975.44	881.111
1977.47	902.222
1979.5	879.778
1981.53	889.556
1983.55	892.444
1985.58	881.111
1987.6	895.333
1989.63	882.889
1991.65	898.889
1993.67	892
1995.69	904.667
1997.72	879.111
1999.74	879.778
2001.76	885.111
2003.78	877.111
2005.8	882.889
2007.82	887.778
2009.83	889.778
2011.85	904.222
2013.87	893.333
2015.88	887.111
2017.9	887.111
2019.91	896
2021.93	874.444
2023.94	890
2025.96	878.889
2027.97	899.111
2029.98	892.444
2031.99	880.667
2034	890.222
2036.01	871.333
2038.02	882.667
2040.03	884
2042.04	873.333
2044.05	883.556
2046.05	879.556
2048.06	893.111
2050.07	885.778
2052.07	872.667
2054.08	882.444
2056.08	885.333
2058.08	875.778
2060.09	876
2062.09	871.333
2064.09	878.444
2066.09	866.222
2068.09	874
2070.09	874.889
2072.09	863.778
2074.09	869.111
2076.09	874.444
2078.09	873.333
2080.08	870.222
2082.08	865.333
2084.08	876.222
2086.07	867.111
2088.07	847.333
2090.06	864.222
2092.05	857.556
2094.05	862
2096.04	874
2098.03	860.667
2100.02	858.667
2102.01	860
2104	874.222
2105.99	849.111
2107.98	876.444
2109.97	845.556
2111.95	849.555
2113.94	867.333
2115.93	859.333
2117.91	862
2119.9	850.889
2121.88	853.111
2123.87	854.222
2125.85	862.889
2127.83	849.111
2129.81	847.778
2131.8	858.445
2133.78	852
2135.76	851.111
2137.74	858.667
2139.72	841.778
2141.69	839.556
2143.67	860.444
2145.65	832.222
2147.63	834.222
2149.6	826
2151.58	848.667
2153.55	838
2155.53	849.333
2157.5	828.222
2159.48	834.222
2161.45	838.667
2163.42	843.333
2165.39	836.889
2167.36	826.222
2169.33	828
2171.3	825.778
2173.27	833.333
2175.24	832
2177.21	833.556
2179.18	833.111
2181.14	840.667
2183.11	844.667
2185.07	821.556
2187.04	824
2189	813.333
2190.97	817.556
2192.93	814
2194.89	824.889
2196.86	816.444
2198.82	830.222
2200.78	813.111
2202.74	819.333
2204.7	800
2206.66	811.333
2208.62	800.889
2210.57	819.555
2212.53	817.333
2214.49	820.222
2216.45	812.667
2218.4	805.111
2220.36	801.333
2222.31	803.333
2224.27	809.556
2226.22	821.778
2228.17	798
2230.12	807.778
2232.08	809.111
2234.03	818
2235.98	811.778
2237.93	805.333
2239.88	797.778
2241.83	802.222
2243.78	806
2245.72	802.222
2247.67	809.556
2249.62	797.778
2251.56	808
2253.51	813.111
2255.45	794.889
2257.4	796.444
2259.34	797.111
2261.28	791.778
2263.23	800.222
2265.17	793.556
2267.11	793.556
2269.05	791.333
2270.99	805.333
2272.93	792
2274.87	802
2276.81	792.222
2278.75	784.222
2280.68	785.556
2282.62	795.111
2284.56	784.667
2286.49	781.778
2288.43	780.889
2290.36	791.556
2292.3	766.889
2294.23	776.667
2296.16	784.667
2298.09	773.778
2300.03	763.333
2301.96	773.556
2303.89	774.222
2305.82	777.778
2307.75	766.444
2309.68	777.556
2311.6	774.889
2313.53	770.889
2315.46	771.778
2317.39	768.889
2319.31	768.445
2321.24	766.444
2323.16	774.889
2325.09	764.444
2327.01	769.778
2328.93	765.556
2330.86	764.444
2332.78	765.556
2334.7	770
2336.62	764.889
2338.54	759.778
2340.46	762
2342.38	751.778
2344.3	760.444
2346.22	754.222
2348.14	740
2350.05	754.444
2351.97	740.889
2353.89	745.556
2355.8	748
2357.71	744.222
2359.63	754
2361.54	742.889
2363.46	752.889
2365.37	741.111
2367.28	748.444
2369.19	748.889
2371.1	735.111
2373.01	746.889
2374.92	752.667
2376.83	741.111
2378.74	740.889
2380.65	750
2382.56	736.222
2384.46	729.333
2386.37	726.667
2388.27	728.222
2390.18	730.667
2392.08	724.222
2393.99	736.889
2395.89	722.222
2397.8	735.778
2399.7	718.222
2401.6	729.111
2403.5	733.555
2405.4	713.111
2407.3	728.222
2409.2	718.667
2411.1	732.222
2413	716.444
2414.9	713.333
2416.8	725.111
2418.69	716
2420.59	712.444
2422.48	706.444
2424.38	722.667
2426.28	713.556
2428.17	722.667
2430.06	708
2431.96	718.889
2433.85	719.778
2435.74	710.444
2437.63	711.111
2439.52	711.333
2441.41	709.778
2443.3	720.889
2445.19	715.556
2447.08	710.889
