178.677	2415.56
181.278	2443.56
183.879	2460.22
186.48	2533.78
189.078	2561.56
191.677	2656.22
194.275	2746.89
196.871	2802.89
199.467	2910.44
202.061	3006.67
204.656	3092
207.248	3172
209.841	3280
212.431	3349.78
215.022	3449.56
217.613	3589.78
220.201	3738.22
222.789	3897.33
225.375	4125.56
227.962	4404.89
230.547	4704.67
233.13	5133.78
235.714	5578.67
238.296	5938
240.879	6257.33
243.459	6390.89
246.04	6192.44
248.618	5831.33
251.196	5340.89
253.774	4749.11
256.35	4221.11
258.927	3721.33
261.501	3297.11
264.074	2956.89
266.648	2630
269.22	2410.22
271.791	2215.56
274.362	2042.89
276.931	1952.44
279.5	1850
282.069	1777.56
284.635	1704.89
287.201	1651.33
289.766	1594.44
292.331	1549.33
294.894	1523.33
297.457	1494.67
300.018	1469.33
302.58	1439.56
305.14	1423.33
307.699	1410
310.257	1371.78
312.814	1369.78
315.372	1356.67
317.928	1330.22
320.482	1318.44
323.036	1321.56
325.589	1319.56
328.142	1315.11
330.693	1324.89
333.243	1323.78
335.795	1294.44
338.343	1292
340.891	1282.44
343.439	1310.89
345.985	1293.33
348.53	1290.67
351.075	1291.33
353.619	1308.67
356.162	1280
358.704	1283.11
361.245	1294.22
363.786	1304.67
366.325	1281.56
368.864	1281.78
371.402	1291.33
373.939	1296.67
376.475	1304.89
379.011	1297.11
381.545	1316.22
384.079	1305.56
386.612	1283.33
389.144	1267.11
391.674	1271.33
394.204	1267.33
396.734	1258
399.263	1249.56
401.791	1258.44
404.318	1239.33
406.844	1241.78
409.368	1258.22
411.893	1248.67
414.417	1236
416.94	1247.33
419.462	1237.11
421.982	1257.11
424.502	1236.89
427.022	1261.78
429.541	1266
432.057	1266
434.574	1275.78
437.091	1281.56
439.606	1266.89
442.12	1263.11
444.634	1244.22
447.147	1248.67
449.657	1246
452.169	1242.44
454.68	1242.22
457.188	1245.78
459.697	1250.22
462.205	1227.11
464.711	1231.78
467.217	1228.44
469.722	1215.11
472.227	1230.22
474.731	1210.89
477.232	1219.11
479.735	1221.56
482.235	1200.89
484.736	1221.33
487.234	1225.56
489.734	1227.11
492.23	1214.67
494.728	1219.78
497.223	1204.22
499.719	1206.67
502.213	1200.44
504.707	1211.33
507.199	1200.67
509.692	1197.56
512.182	1206.89
514.673	1198.22
517.162	1183.56
519.65	1204.67
522.139	1195.56
524.625	1194.44
527.112	1162.67
529.597	1180.89
532.081	1163.33
534.565	1185.78
537.047	1175.78
539.529	1173.33
542.011	1187.78
544.491	1178
546.97	1171.33
549.45	1177.78
551.927	1184.22
554.404	1191.33
556.88	1175.78
559.356	1186.44
561.831	1202.44
564.304	1186
566.777	1192.44
569.25	1211.56
571.721	1170.22
574.191	1183.56
576.661	1202.67
579.129	1189.56
581.599	1195.11
584.066	1182.44
586.532	1186.22
588.997	1180.67
591.462	1199.78
593.926	1196
596.389	1188.22
598.851	1184.89
601.314	1189.33
603.775	1196.89
606.235	1189.11
608.694	1187.33
611.152	1179.11
613.609	1194.67
616.066	1206.89
618.522	1199.33
620.977	1206.67
623.431	1209.33
625.885	1213.56
628.338	1214.44
630.79	1203.78
633.241	1202.44
635.691	1217.78
638.141	1211.11
640.589	1228.44
643.036	1220.67
645.483	1222.89
647.929	1216.67
650.375	1210.89
652.82	1212.22
655.264	1203.78
657.707	1203.56
660.149	1189.78
662.59	1211.33
665.031	1192
667.471	1199.33
669.91	1183.11
672.349	1181.33
674.786	1186.44
677.222	1202.89
679.658	1184.67
682.093	1186.22
684.528	1183.78
686.96	1177.11
689.393	1198.44
691.826	1213.78
694.256	1195.78
696.686	1210
699.116	1206.67
701.545	1208.89
703.972	1224
706.4	1203.78
708.826	1222
711.251	1211.56
713.676	1180
716.099	1226.67
718.523	1204.89
720.946	1199.33
723.366	1192
725.788	1203.11
728.207	1183.78
730.627	1195.33
733.044	1221.11
735.462	1200.67
737.88	1186.89
740.295	1204.89
742.711	1206
745.125	1198.67
747.539	1205.33
749.951	1208
752.363	1195.56
754.775	1206.44
757.185	1196.22
759.595	1198.22
762.003	1193.11
764.412	1214.22
766.819	1180.89
769.225	1194.44
771.632	1184.44
774.036	1207.56
776.441	1204.89
778.844	1202.22
781.246	1194
783.649	1214.67
786.05	1196
788.449	1209.56
790.85	1215.11
793.248	1217.11
795.646	1213.11
798.042	1223.11
800.44	1225.56
802.835	1216.44
805.23	1227.11
807.623	1217.11
810.018	1226.89
812.41	1240.67
814.801	1235.78
817.192	1246.67
819.582	1232.89
821.972	1238.22
824.361	1219.78
826.748	1220.44
829.135	1216.44
831.521	1240.67
833.907	1224
836.291	1232.67
838.675	1221.56
841.059	1221.33
843.442	1233.33
845.823	1227.56
848.204	1242.44
850.584	1239.56
852.963	1238.44
855.342	1248.44
857.72	1277.11
860.097	1286.89
862.473	1300
864.848	1292.22
867.223	1269.78
869.597	1257.78
871.97	1223.33
874.343	1222.44
876.714	1213.33
879.084	1216.67
881.454	1222.44
883.824	1212.67
886.192	1215.11
888.56	1218
890.927	1231.56
893.294	1242.89
895.66	1213.78
898.023	1231.56
900.387	1216.89
902.751	1204.22
905.114	1228.44
907.476	1233.78
909.835	1216.44
912.196	1220.22
914.555	1226
916.914	1227.56
919.271	1210.67
921.629	1230.67
923.985	1217.78
926.341	1190.44
928.695	1218.44
931.05	1206.44
933.404	1196
935.755	1194.22
938.107	1224.44
940.459	1215.33
942.808	1198.89
945.158	1212.67
947.508	1221.33
949.855	1219.56
952.202	1224.22
954.548	1208.22
956.894	1212.89
959.239	1230
961.583	1229.56
963.928	1211.78
966.27	1231.78
968.612	1223.11
970.953	1233.78
973.294	1218.44
975.633	1228.67
977.972	1223.56
980.31	1226.89
982.647	1208
984.984	1230.44
987.32	1234.67
989.656	1242.22
991.989	1234.44
994.324	1232.44
996.656	1247.33
998.988	1246
1001.32	1234.89
1003.65	1222.67
1005.98	1226
1008.31	1218.44
1010.64	1226.67
1012.97	1238.22
1015.29	1223.11
1017.62	1231.78
1019.94	1249.78
1022.27	1217.56
1024.59	1216.22
1026.92	1224
1029.24	1239.11
1031.56	1246.44
1033.88	1243.56
1036.2	1240.67
1038.52	1236.89
1040.84	1234.89
1043.16	1246.89
1045.48	1258.89
1047.79	1242.22
1050.11	1235.56
1052.42	1249.78
1054.74	1255.56
1057.05	1262.22
1059.36	1269.56
1061.67	1256
1063.99	1258.89
1066.3	1270
1068.61	1266.89
1070.92	1254.22
1073.22	1265.78
1075.53	1270.67
1077.84	1265.33
1080.15	1283.78
1082.45	1280.44
1084.76	1273.11
1087.06	1291.11
1089.36	1295.78
1091.66	1315.11
1093.97	1351.33
1096.27	1342.44
1098.57	1344
1100.87	1334.89
1103.17	1333.78
1105.46	1329.11
1107.76	1349.11
1110.06	1331.78
1112.35	1354.44
1114.65	1343.33
1116.94	1334.44
1119.24	1338.89
1121.53	1336.89
1123.82	1337.11
1126.11	1329.56
1128.4	1329.78
1130.7	1329.78
1132.98	1315.56
1135.27	1311.78
1137.56	1313.78
1139.85	1304.67
1142.13	1286.67
1144.42	1300.67
1146.71	1321.11
1148.99	1309.33
1151.27	1317.11
1153.56	1325.78
1155.84	1325.33
1158.12	1314.22
1160.4	1324.67
1162.68	1320
1164.96	1341.56
1167.24	1341.56
1169.51	1325.78
1171.79	1322.44
1174.07	1322.89
1176.34	1298
1178.62	1295.56
1180.89	1308.67
1183.17	1286.22
1185.44	1259.33
1187.71	1280
1189.98	1283.33
1192.25	1277.11
1194.52	1277.56
1196.79	1282.44
1199.06	1292.44
1201.33	1278
1203.59	1293.56
1205.86	1293.56
1208.12	1298
1210.39	1293.56
1212.65	1289.11
1214.92	1304.89
1217.18	1295.78
1219.44	1305.56
1221.7	1299.56
1223.96	1320.22
1226.22	1324
1228.48	1328
1230.74	1323.11
1233	1340
1235.25	1351.56
1237.51	1399.33
1239.77	1413.11
1242.02	1409.78
1244.27	1428.67
1246.53	1428.67
1248.78	1438.67
1251.03	1439.11
1253.28	1454.67
1255.53	1428.22
1257.78	1430.67
1260.03	1450.44
1262.28	1458.44
1264.53	1452.89
1266.78	1449.56
1269.02	1428
1271.27	1413.11
1273.51	1409.33
1275.76	1415.33
1278	1390.89
1280.24	1373.56
1282.48	1363.11
1284.72	1356
1286.97	1336.67
1289.21	1339.56
1291.44	1359.33
1293.68	1367.56
1295.92	1359.78
1298.16	1361.56
1300.39	1348.22
1302.63	1349.33
1304.86	1353.78
1307.1	1374
1309.33	1379.56
1311.56	1417.11
1313.8	1430
1316.03	1467.78
1318.26	1499.56
1320.49	1527.56
1322.72	1543.33
1324.95	1552.22
1327.17	1544.44
1329.4	1511.78
1331.63	1491.33
1333.85	1460.89
1336.08	1429.78
1338.3	1404.44
1340.53	1369.78
1342.75	1393.78
1344.97	1385.78
1347.19	1365.78
1349.41	1377.56
1351.63	1358
1353.85	1343.11
1356.07	1343.33
1358.29	1357.56
1360.51	1338.44
1362.72	1336
1364.94	1342.67
1367.16	1358.22
1369.37	1342.89
1371.58	1354.44
1373.8	1362.44
1376.01	1352.44
1378.22	1356.22
1380.43	1359.78
1382.64	1358.89
1384.85	1354
1387.06	1358.44
1389.27	1326.44
1391.48	1349.56
1393.68	1337.11
1395.89	1351.56
1398.1	1349.78
1400.3	1320.22
1402.51	1326.44
1404.71	1324.67
1406.91	1325.56
1409.11	1317.33
1411.32	1326.89
1413.52	1321.78
1415.72	1325.78
1417.92	1326.89
1420.11	1296.44
1422.31	1312.44
1424.51	1331.78
1426.71	1335.11
1428.9	1318.44
1431.1	1295.78
1433.29	1319.56
1435.49	1302.44
1437.68	1320.67
1439.87	1322.22
1442.06	1331.56
1444.25	1311.56
1446.45	1312.89
1448.64	1316.89
1450.82	1316.44
1453.01	1320.67
1455.2	1325.33
1457.39	1297.56
1459.57	1312.89
1461.76	1333.33
1463.94	1318.22
1466.13	1319.33
1468.31	1310.44
1470.5	1315.78
1472.68	1316.22
1474.86	1328.89
1477.04	1308.89
1479.22	1306
1481.4	1308
1483.58	1304
1485.76	1317.56
1487.94	1313.33
1490.11	1293.56
1492.29	1299.11
1494.46	1295.33
1496.64	1291.78
1498.81	1294.67
1500.99	1298
1503.16	1296.67
1505.33	1279.56
1507.5	1278.67
1509.67	1296.67
1511.84	1290.67
1514.01	1281.11
1516.18	1295.78
1518.35	1308.67
1520.52	1273.56
1522.68	1287.33
1524.85	1281.33
1527.02	1292.67
1529.18	1284.67
1531.35	1281.11
1533.51	1277.11
1535.67	1278.22
1537.83	1297.78
1539.99	1280.44
1542.16	1294
1544.31	1298.44
1546.47	1301.56
1548.63	1296.22
1550.79	1271.56
1552.95	1320.67
1555.11	1300.44
1557.26	1319.11
1559.42	1312.44
1561.57	1302.44
1563.73	1307.56
1565.88	1310.67
1568.03	1334.22
1570.18	1319.11
1572.34	1315.11
1574.49	1351.56
1576.64	1334.89
1578.79	1328.44
1580.93	1336
1583.08	1320.22
1585.23	1322.44
1587.38	1322.67
1589.52	1331.78
1591.67	1325.56
1593.81	1315.56
1595.96	1325.78
1598.1	1321.78
1600.24	1311.33
1602.38	1316.67
1604.53	1299.56
1606.67	1314
1608.81	1289.78
1610.95	1306.44
1613.09	1283.11
1615.22	1290.67
1617.36	1284.44
1619.5	1276.44
1621.63	1286.89
1623.77	1274
1625.9	1245.56
1628.04	1253.33
1630.17	1245.33
1632.3	1248.67
1634.44	1228
1636.57	1242.22
1638.7	1226
1640.83	1230
1642.96	1216.22
1645.09	1208
1647.22	1224.67
1649.34	1216
1651.47	1196.89
1653.6	1200
1655.72	1204
1657.85	1181.56
1659.97	1203.78
1662.1	1184.44
1664.22	1202
1666.34	1188.44
1668.46	1186
1670.58	1188.89
1672.7	1172
1674.82	1197.78
1676.94	1190.22
1679.06	1180.22
1681.18	1185.33
1683.3	1178.44
1685.41	1180.89
1687.53	1170.22
1689.64	1179.33
1691.76	1180.67
1693.87	1176.67
1695.99	1185.56
1698.1	1168.44
1700.21	1180
1702.32	1169.33
1704.43	1158.89
1706.54	1182.44
1708.65	1177.33
1710.76	1185.11
1712.87	1175.56
1714.98	1162.22
1717.08	1172.22
1719.19	1175.33
1721.29	1152.67
1723.4	1157.11
1725.5	1153.56
1727.61	1151.33
1729.71	1152.44
1731.81	1158.44
1733.91	1163.56
1736.02	1144
1738.12	1148.67
1740.22	1130.67
1742.31	1141.11
1744.41	1140
1746.51	1154.89
1748.61	1139.33
1750.7	1121.56
1752.8	1132.67
1754.9	1113.56
1756.99	1131.33
1759.08	1141.78
1761.18	1132.44
1763.27	1120.67
1765.36	1137.56
1767.45	1126.22
1769.54	1125.33
1771.63	1138.67
1773.72	1117.33
1775.81	1125.56
1777.9	1133.33
1779.99	1128.44
1782.08	1131.33
1784.16	1127.78
1786.25	1118.89
1788.33	1112.22
1790.42	1134.44
1792.5	1129.78
1794.58	1126.22
1796.67	1122.22
1798.75	1124
1800.83	1122.89
1802.91	1124.22
1804.99	1123.56
1807.07	1115.33
1809.15	1115.56
1811.23	1121.33
1813.3	1140.44
1815.38	1115.56
1817.46	1128
1819.53	1113.11
1821.61	1130
1823.68	1114.89
1825.75	1110.22
1827.83	1113.11
1829.9	1105.56
1831.97	1102
1834.04	1110.44
1836.11	1113.56
1838.18	1103.33
1840.25	1117.78
1842.32	1115.33
1844.39	1097.11
1846.46	1100
1848.52	1112
1850.59	1091.56
1852.65	1094.22
1854.72	1089.78
1856.78	1103.11
1858.85	1109.78
1860.91	1085.78
1862.97	1083.56
1865.03	1081.56
1867.09	1086.22
1869.16	1095.11
1871.22	1100.89
1873.27	1075.78
1875.33	1074
1877.39	1083.56
1879.45	1085.33
1881.51	1088.89
1883.56	1084.44
1885.62	1089.78
1887.67	1076.89
1889.73	1072.89
1891.78	1076.44
1893.83	1076
1895.89	1068.67
1897.94	1087.78
1899.99	1085.56
1902.04	1077.11
1904.09	1100
1906.14	1087.56
1908.19	1060.44
1910.23	1068.22
1912.28	1075.78
1914.33	1091.33
1916.37	1076.22
1918.42	1095.33
1920.46	1064.44
1922.51	1051.11
1924.55	1076.67
1926.6	1085.33
1928.64	1052.22
1930.68	1064.44
1932.72	1062
1934.76	1060.44
1936.8	1075.78
1938.84	1069.78
1940.88	1053.33
1942.92	1064.44
1944.96	1059.33
1946.99	1057.33
1949.03	1054.22
1951.06	1058.67
1953.1	1054
1955.13	1048.67
1957.17	1041.11
1959.2	1046.22
1961.23	1039.56
1963.27	1066.89
1965.3	1047.56
1967.33	1034.44
1969.36	1043.33
1971.39	1041.11
1973.42	1041.33
1975.44	1034.67
1977.47	1047.78
1979.5	1037.11
1981.53	1031.78
1983.55	1034.44
1985.58	1042.22
1987.6	1046.44
1989.63	1034
1991.65	1036.22
1993.67	1037.11
1995.69	1014.67
1997.72	1018.67
1999.74	1026.67
2001.76	1026.89
2003.78	1033.78
2005.8	1045.33
2007.82	1032.44
2009.83	1033.56
2011.85	1027.56
2013.87	1032.89
2015.88	1026.67
2017.9	1033.78
2019.91	1016
2021.93	1055.33
2023.94	1027.78
2025.96	1039.11
2027.97	1026.67
2029.98	1028.89
2031.99	1025.78
2034	1023.78
2036.01	1020.89
2038.02	1026.22
2040.03	1021.11
2042.04	1029.78
2044.05	1032.89
2046.05	1017.11
2048.06	1035.78
2050.07	1021.56
2052.07	1023.33
2054.08	1020.44
2056.08	1016.67
2058.08	1009.56
2060.09	1019.56
2062.09	1024.44
2064.09	1020.67
2066.09	1012.89
2068.09	1009.78
2070.09	1022.22
2072.09	1000.89
2074.09	1016
2076.09	1019.56
2078.09	998.667
2080.08	1014.89
2082.08	1020
2084.08	999.778
2086.07	1013.78
2088.07	1000.22
2090.06	1008
2092.05	1011.11
2094.05	997.333
2096.04	1008.44
2098.03	1006.22
2100.02	1003.78
2102.01	1000.67
2104	994.889
2105.99	998.889
2107.98	995.778
2109.97	996.889
2111.95	990
2113.94	999.111
2115.93	995.111
2117.91	991.111
2119.9	991.556
2121.88	1003.33
2123.87	987.111
2125.85	982
2127.83	992.889
2129.81	989.778
2131.8	998.889
2133.78	976.444
2135.76	987.333
2137.74	996.222
2139.72	977.111
2141.69	987.556
2143.67	984
2145.65	970.667
2147.63	983.778
2149.6	975.333
2151.58	962.889
2153.55	981.333
2155.53	973.333
2157.5	970.889
2159.48	967.556
2161.45	984.444
2163.42	968.667
2165.39	977.333
2167.36	956.667
2169.33	961.333
2171.3	979.778
2173.27	949.333
2175.24	955.778
2177.21	969.556
2179.18	962.444
2181.14	961.333
2183.11	967.556
2185.07	959.778
2187.04	953.333
2189	949.556
2190.97	949.111
2192.93	946.444
2194.89	947.333
2196.86	950.222
2198.82	952.889
2200.78	934.889
2202.74	942.667
2204.7	936.889
2206.66	945.778
2208.62	930.444
2210.57	938.444
2212.53	943.111
2214.49	946.445
2216.45	944
2218.4	924.222
2220.36	935.111
2222.31	936.667
2224.27	941.778
2226.22	933.111
2228.17	924.444
2230.12	933.111
2232.08	926.889
2234.03	925.111
2235.98	927.333
2237.93	928.222
2239.88	936.222
2241.83	934.222
2243.78	929.778
2245.72	928.667
2247.67	922.889
2249.62	934.222
2251.56	913.111
2253.51	927.111
2255.45	917.778
2257.4	922.667
2259.34	916.889
2261.28	909.778
2263.23	908.667
2265.17	921.111
2267.11	906
2269.05	898.444
2270.99	911.333
2272.93	897.333
2274.87	909.556
2276.81	903.333
2278.75	905.111
2280.68	889.111
2282.62	904.222
2284.56	906.889
2286.49	905.333
2288.43	893.778
2290.36	887.778
2292.3	891.333
2294.23	901.556
2296.16	878.222
2298.09	877.778
2300.03	878.889
2301.96	877.556
2303.89	875.556
2305.82	888
2307.75	881.333
2309.68	886.444
2311.6	875.556
2313.53	885.778
2315.46	863.778
2317.39	867.111
2319.31	867.778
2321.24	873.556
2323.16	878.889
2325.09	868.889
2327.01	878
2328.93	880.444
2330.86	860
2332.78	883.556
2334.7	872.444
2336.62	872.667
2338.54	867.556
2340.46	875.556
2342.38	876.889
2344.3	866.222
2346.22	858.667
2348.14	849.778
2350.05	862.222
2351.97	857.111
2353.89	854.444
2355.8	868
2357.71	858
2359.63	859.556
2361.54	856.667
2363.46	860.889
2365.37	856.889
2367.28	844.222
2369.19	849.778
2371.1	846.222
2373.01	854.222
2374.92	854.889
2376.83	855.778
2378.74	842.222
2380.65	842.222
2382.56	835.111
2384.46	844.222
2386.37	852.889
2388.27	838
2390.18	838
2392.08	842.444
2393.99	845.556
2395.89	829.111
2397.8	835.556
2399.7	835.333
2401.6	843.556
2403.5	829.556
2405.4	836.889
2407.3	837.111
2409.2	829.556
2411.1	824.444
2413	844.889
2414.9	824.444
2416.8	825.333
2418.69	831.556
2420.59	833.333
2422.48	828.667
2424.38	826
2426.28	825.778
2428.17	820.444
2430.06	810.444
2431.96	831.333
2433.85	830
2435.74	824.222
2437.63	819.556
2439.52	814.889
2441.41	809.778
2443.3	827.778
2445.19	825.778
2447.08	819.333
